2110,2647,4889
2107,2646,4883
2110,2648,4889
2110,2648,4882
2110,2651,4882
2108,2651,4882
2110,2651,4879
2110,2651,4881
2111,2651,4881
2111,2651,4881
2113,2650,4881
2109,2650,4878
2109,2650,4878
2109,2649,4878
2109,2649,4877
2108,2654,4877
2108,2654,4874
2109,2653,4874
2109,2653,4878
2110,2650,4878
2110,2650,4885
2109,2650,4885
2109,2649,4891
2109,2649,4894
2106,2647,4894
2106,2647,4896
2109,2649,4896
2109,2649,4900
2109,2647,4900
2109,2647,4900
2107,2650,4900
2107,2650,4897
2107,2652,4897
2111,2650,4896
2111,2650,4896
2108,2650,4896
2108,2650,4896
2109,2650,4896
2109,2650,4896
2106,2652,4896
2106,2652,4894
2111,2653,4894
2111,2653,4894
2109,2653,4894
2108,2652,4894
2108,2652,4895
2109,2652,4895
2109,2652,4892
2105,2655,4892
2105,2655,4893
2102,2652,4891
2101,2650,4883
2102,2652,4891
2098,2644,4891
2104,2646,4894
2106,2647,4887
2111,2646,4885
2110,2650,4888
2106,2651,4887
2110,2650,4884
2112,2655,4884
2111,2655,4884
2112,2648,4883
2112,2653,4885
2112,2648,4883
2115,2655,4883
2114,2655,4882
2111,2655,4880
2111,2654,4880
2111,2654,4880
2111,2654,4880
2111,2656,4880
2114,2656,4880
2115,2656,4877
2115,2655,4877
2115,2655,4882
2115,2653,4882
2112,2652,4890
2113,2652,4891
2109,2652,4897
2109,2653,4897
2112,2648,4899
2114,2648,4904
2114,2652,4904
2114,2652,4905
2112,2651,4905
2114,2651,4891
2112,2651,4909
2110,2651,4909
2110,2652,4909
2110,2652,4905
2113,2652,4905
2114,2652,4906
2113,2652,4904
2113,2652,4904
2112,2649,4903
2112,2653,4901
2112,2649,4902
2111,2649,4902
2111,2651,4904
2111,2654,4904
2113,2654,4903
2113,2654,4902
2112,2654,4900
2113,2652,4902
2114,2652,4900
2114,2654,4900
2111,2654,4902
2111,2653,4902
2111,2653,4894
2111,2654,4894
2110,2654,4892
2110,2657,4892
2110,2657,4892
2110,2655,4892
2107,2655,4890
2107,2656,4890
2108,2656,4888
2108,2657,4888
2109,2657,4881
2109,2656,4881
2104,2656,4878
2104,2655,4878
2106,2655,4875
2106,2659,4875
2110,2659,4878
2110,2656,4878
2115,2656,4874
2115,2658,4874
2111,2658,4877
2111,2657,4877
2113,2657,4874
2113,2658,4874
2111,2658,4878
2111,2657,4878
2110,2657,4883
2110,2652,4883
2103,2652,4889
2103,2646,4889
2106,2646,4900
2106,2648,4900
2108,2648,4901
2108,2648,4901
2109,2648,4898
2109,2647,4898
2115,2647,4897
2115,2650,4897
2114,2650,4893
2114,2648,4893
2113,2648,4891
2113,2646,4891
2117,2646,4891
2117,2647,4891
2115,2647,4891
2116,2644,4888
2117,2643,4893
2116,2645,4888
2117,2645,4897
2117,2644,4897
2117,2644,4893
2118,2645,4899
2118,2646,4899
2120,2646,4899
2120,2647,4902
2117,2647,4903
2117,2649,4903
2118,2649,4902
2118,2652,4902
2119,2652,4905
2119,2654,4905
2120,2654,4905
2120,2654,4907
2117,2651,4902
2117,2653,4902
2122,2653,4900
2122,2653,4900
2120,2653,4900
2120,2653,4906
2118,2655,4896
2118,2654,4896
2116,2654,4895
2116,2658,4895
2123,2658,4895
2123,2658,4898
2121,2658,4891
2121,2657,4891
2123,2657,4892
2123,2658,4892
2126,2658,4892
2126,2658,4889
2119,2661,4888
2119,2660,4888
2122,2660,4888
2122,2660,4882
2120,2660,4882
2120,2660,4887
2124,2658,4887
2124,2657,4887
2125,2657,4887
2125,2659,4890
2121,2659,4890
2121,2659,4892
2123,2658,4896
2123,2655,4896
2119,2655,4896
2119,2659,4901
2119,2659,4901
2119,2659,4909
2122,2658,4906
2122,2659,4906
2122,2659,4906
2114,2657,4909
2122,2659,4909
2114,2660,4909
2122,2660,4909
2122,2663,4904
2116,2663,4904
2116,2663,4904
2124,2662,4900
2124,2662,4900
2123,2662,4900
2123,2663,4900
2117,2660,4898
2121,2659,4899
2117,2660,4898
2121,2660,4898
2121,2660,4900
2113,2660,4900
2113,2660,4899
2117,2658,4904
2117,2656,4904
2112,2656,4904
2112,2652,4902
2113,2652,4902
2113,2652,4899
2121,2656,4901
2121,2656,4901
2124,2656,4901
2124,2659,4898
2123,2659,4898
2123,2659,4898
2123,2660,4897
2122,2661,4893
2121,2659,4899
2128,2661,4893
2128,2661,4894
2125,2661,4889
2125,2662,4889
2124,2662,4889
2124,2665,4890
2124,2665,4890
2124,2665,4889
2126,2665,4891
2126,2667,4888
2127,2665,4891
2127,2665,4892
2126,2664,4894
2126,2662,4894
2126,2662,4894
2126,2659,4901
2125,2659,4901
2125,2659,4908
2122,2660,4910
2122,2658,4910
2124,2658,4910
2124,2664,4911
2121,2664,4911
2121,2664,4913
2124,2659,4908
2124,2658,4908
2122,2658,4908
2122,2662,4910
2128,2662,4910
2128,2662,4909
2127,2661,4906
2127,2661,4906
2124,2661,4906
2124,2661,4907
2121,2661,4907
2121,2661,4906
2125,2662,4905
2124,2660,4905
2126,2661,4888
2119,2660,4905
2119,2660,4906
2124,2660,4908
2124,2662,4908
2120,2662,4908
2120,2660,4909
2119,2663,4910
2120,2664,4909
2121,2664,4909
2121,2661,4904
2119,2661,4904
2119,2661,4902
2116,2662,4895
2117,2664,4896
2119,2663,4910
2116,2664,4896
2117,2665,4892
2119,2663,4886
2117,2662,4892
2115,2662,4892
2115,2662,4883
2115,2664,4883
2114,2665,4884
2119,2663,4883
2114,2665,4884
2122,2665,4884
2122,2665,4882
2122,2665,4882
2121,2665,4882
2119,2663,4883
2119,2663,4883
2119,2665,4883
2121,2665,4883
2121,2665,4889
2121,2662,4889
2121,2662,4889
2119,2663,4895
2119,2663,4904
2113,2661,4909
2115,2656,4918
2114,2654,4922
2113,2654,4909
2115,2654,4909
2115,2654,4922
2115,2655,4922
2119,2655,4922
2121,2657,4918
2115,2656,4920
2121,2659,4918
2121,2659,4918
2121,2659,4921
2121,2658,4921
2122,2658,4921
2122,2658,4914
2115,2656,4910
2122,2659,4914
2123,2659,4914
2123,2659,4906
2123,2656,4906
2119,2656,4906
2119,2657,4903
2115,2656,4903
2119,2654,4903
2122,2654,4903
2122,2654,4899
2122,2652,4899
2120,2652,4899
2123,2651,4901
2115,2656,4904
2123,2651,4901
2121,2651,4901
2121,2651,4904
2121,2653,4904
2120,2653,4904
2123,2653,4908
2115,2656,4915
2121,2655,4911
2121,2655,4911
2121,2655,4914
2121,2657,4914
2121,2660,4914
2122,2660,4914
2122,2660,4910
2122,2662,4910
2123,2662,4910
2123,2659,4912
2115,2656,4909
2123,2663,4912
2124,2663,4912
2124,2663,4907
2121,2659,4910
2121,2663,4908
2121,2666,4910
2125,2666,4910
2125,2666,4906
2125,2664,4906
2124,2664,4906
2121,2663,4907
2121,2663,4906
2123,2666,4907
2123,2666,4903
2121,2666,4903
2121,2666,4905
2121,2665,4905
2121,2665,4905
2121,2665,4904
2120,2663,4904
2120,2663,4918
2123,2664,4922
2121,2663,4928
2123,2661,4931
2120,2662,4931
2121,2665,4930
2121,2665,4930
2120,2662,4930
2118,2665,4932
2119,2667,4930
2114,2654,4926
2119,2666,4932
2119,2666,4927
2121,2664,4927
2121,2664,4928
2118,2665,4928
2118,2665,4925
2120,2663,4925
2120,2663,4927
2115,2667,4927
2116,2666,4925
2117,2665,4925
2114,2654,4926
2111,2664,4925
2111,2664,4926
2110,2662,4926
2110,2662,4928
2106,2662,4928
2106,2662,4924
2109,2659,4924
2109,2659,4926
2114,2662,4926
2114,2662,4921
2120,2664,4921
2120,2664,4924
2118,2664,4924
2118,2665,4924
2122,2666,4920
2122,2666,4921
2122,2666,4915
2121,2668,4915
2121,2668,4917
2120,2669,4917
2120,2669,4915
2119,2671,4915
2119,2671,4916
2118,2671,4916
2118,2670,4916
2118,2672,4916
2118,2672,4913
2121,2672,4913
2121,2672,4914
2126,2672,4914
2126,2674,4914
2118,2672,4908
2118,2672,4911
2120,2675,4911
2120,2675,4914
2118,2675,4914
2118,2671,4914
2116,2669,4917
2122,2669,4926
2114,2654,4931
2116,2667,4917
2116,2667,4931
2117,2669,4931
2115,2672,4934
2116,2670,4933
2115,2670,4935
2115,2672,4934
2115,2671,4934
2115,2671,4932
2113,2671,4932
2113,2669,4932
2113,2673,4931
2113,2673,4932
2112,2673,4932
2112,2673,4927
2112,2673,4927
2112,2674,4927
2112,2674,4929
2112,2674,4931
2111,2674,4931
2111,2676,4928
2109,2676,4928
2109,2672,4928
2109,2672,4927
2109,2672,4926
2109,2672,4926
2109,2671,4923
2107,2671,4923
2107,2674,4923
2107,2676,4922
2106,2674,4914
2116,2670,4910
2107,2674,4914
2107,2674,4914
2111,2675,4913
2111,2675,4911
2113,2675,4911
2113,2678,4910
2111,2678,4910
2111,2677,4910
2114,2675,4907
2114,2675,4910
2113,2675,4910
2113,2676,4918
2114,2676,4918
2114,2679,4918
2117,2675,4917
2117,2675,4914
2115,2675,4914
2115,2677,4914
2112,2677,4914
2112,2677,4914
2114,2678,4915
2114,2678,4911
2111,2678,4911
2111,2677,4911
2111,2677,4911
2111,2678,4911
2107,2671,4914
2107,2671,4914
2107,2671,4914
2107,2672,4916
2112,2672,4916
2112,2669,4916
2113,2668,4922
2113,2668,4932
2111,2668,4932
2111,2670,4932
2113,2670,4932
2113,2675,4932
2115,2672,4934
2115,2672,4941
2111,2672,4941
2111,2672,4938
2115,2672,4938
2115,2676,4938
2112,2676,4939
2114,2677,4933
2113,2673,4925
2115,2674,4921
2114,2677,4917
2113,2677,4917
2113,2676,4915
2114,2670,4916
2114,2672,4925
2114,2670,4914
2114,2670,4914
2114,2668,4916
2115,2671,4918
2112,2668,4925
2115,2671,4922
2114,2671,4922
2114,2668,4924
2116,2668,4924
2116,2672,4924
2112,2672,4928
2112,2672,4929
2114,2672,4929
2114,2677,4927
2114,2677,4927
2118,2675,4931
2112,2676,4925
2118,2675,4927
2115,2679,4924
2114,2677,4925
2117,2678,4921
2115,2679,4921
2113,2679,4921
2113,2679,4921
2119,2679,4921
2119,2680,4921
2116,2680,4921
2116,2678,4921
2116,2678,4921
2116,2681,4920
2117,2681,4920
2117,2683,4920
2115,2683,4919
2115,2682,4917
2116,2682,4917
2116,2685,4917
2117,2685,4917
2117,2683,4917
2113,2684,4921
2114,2681,4927
2117,2678,4931
2113,2684,4921
2113,2680,4921
2112,2680,4939
2112,2681,4939
2112,2681,4942
2115,2683,4940
2114,2683,4940
2114,2681,4940
2109,2681,4943
2109,2683,4943
2109,2683,4943
2113,2682,4948
2114,2682,4948
2114,2686,4948
2107,2686,4944
2107,2686,4944
2107,2686,4937
2110,2684,4937
2106,2684,4937
2106,2685,4937
2107,2685,4941
2107,2684,4941
2107,2684,4939
2101,2682,4938
2099,2680,4940
2100,2681,4927
2099,2680,4939
2106,2680,4939
2106,2682,4940
2109,2682,4940
2109,2684,4940
2107,2684,4940
2107,2681,4940
2107,2681,4937
2112,2683,4937
2110,2683,4937
2110,2687,4936
2107,2687,4936
2107,2686,4936
2107,2686,4933
2109,2690,4935
2108,2690,4935
2108,2688,4932
2111,2688,4932
2111,2687,4928
2108,2687,4928
2108,2690,4929
2107,2690,4929
2107,2690,4927
2109,2690,4927
2108,2693,4925
2100,2690,4927
2110,2693,4925
2110,2695,4925
2108,2695,4926
2108,2690,4928
2107,2690,4928
2110,2692,4924
2109,2692,4923
2109,2692,4923
2105,2692,4924
2105,2688,4933
2106,2688,4933
2106,2688,4937
2104,2688,4937
2104,2689,4944
2102,2689,4944
2102,2688,4946
2100,2688,4946
2100,2692,4945
2096,2692,4945
2096,2688,4944
2098,2688,4944
2098,2690,4943
2095,2690,4943
2095,2689,4939
2097,2689,4939
2097,2690,4934
2094,2690,4934
2094,2689,4934
2095,2689,4935
2099,2690,4940
2109,2691,4936
2101,2690,4940
2103,2691,4938
2103,2690,4942
2105,2690,4942
2105,2691,4944
2104,2691,4944
2104,2689,4947
2102,2689,4947
2102,2691,4949
2104,2691,4949
2104,2689,4949
2100,2689,4949
2100,2690,4950
2102,2690,4950
2102,2692,4947
2104,2692,4947
2104,2692,4945
2105,2692,4945
2105,2692,4947
2106,2692,4947
2106,2689,4945
2104,2689,4945
2104,2692,4942
2102,2692,4942
2102,2692,4941
2101,2692,4941
2101,2693,4941
2100,2691,4940
2101,2690,4940
2095,2691,4936
2101,2690,4937
2096,2690,4937
2096,2687,4936
2097,2687,4936
2097,2689,4935
2097,2689,4935
2097,2688,4936
2101,2689,4934
2102,2691,4935
2105,2692,4923
2101,2687,4938
2103,2687,4938
2103,2690,4944
2101,2690,4951
2104,2691,4935
2101,2692,4955
2100,2692,4963
2097,2692,4963
2097,2690,4962
2103,2690,4962
2103,2695,4963
2099,2695,4963
2099,2692,4966
2096,2692,4966
2096,2692,4962
2097,2692,4962
2097,2694,4959
2101,2694,4959
2101,2695,4959
2096,2695,4959
2096,2691,4958
2098,2691,4958
2100,2693,4953
2104,2694,4950
2098,2693,4953
2098,2694,4943
2099,2694,4943
2099,2692,4947
2100,2692,4947
2100,2691,4945
2097,2691,4945
2099,2688,4941
2098,2688,4944
2105,2687,4945
2096,2688,4941
2096,2688,4940
2098,2689,4940
2098,2689,4944
2098,2689,4944
2098,2690,4948
2098,2690,4948
2098,2690,4950
2096,2692,4950
2096,2693,4950
2095,2693,4950
2095,2694,4951
2096,2694,4951
2096,2694,4950
2097,2695,4950
2097,2695,4949
2098,2697,4949
2099,2697,4948
2099,2697,4950
2097,2697,4950
2097,2697,4945
2095,2698,4945
2095,2698,4949
2097,2697,4949
2097,2696,4947
2096,2696,4947
2096,2696,4944
2102,2700,4944
2098,2697,4947
2095,2698,4948
2095,2698,4951
2100,2697,4951
2095,2698,4958
2095,2698,4966
2095,2696,4966
2095,2696,4968
2096,2697,4968
2096,2697,4972
2094,2694,4972
2093,2698,4971
2089,2697,4968
2085,2696,4971
2086,2698,4967
2086,2694,4967
2085,2690,4967
2085,2690,4964
2089,2692,4964
2089,2692,4964
2094,2694,4964
2094,2694,4965
2092,2694,4965
2095,2694,4963
2095,2696,4963
2092,2696,4967
2092,2696,4967
2092,2696,4971
2091,2696,4971
2093,2696,4970
2093,2695,4970
2092,2695,4966
2092,2699,4966
2093,2697,4961
2091,2702,4961
2094,2702,4964
2091,2699,4963
2091,2695,4963
2093,2695,4959
2093,2699,4959
2093,2699,4957
2093,2698,4957
2090,2698,4956
2090,2697,4956
2088,2697,4953
2088,2699,4953
2089,2699,4950
2089,2701,4950
2085,2701,4950
2085,2698,4950
2086,2698,4949
2086,2697,4949
2086,2695,4952
2086,2700,4958
2086,2694,4952
2086,2694,4965
2089,2694,4973
2089,2694,4973
2091,2694,4975
2091,2692,4975
2090,2692,4978
2090,2695,4978
2096,2695,4979
2096,2695,4979
2092,2695,4980
2092,2694,4980
2093,2694,4982
2093,2699,4982
2091,2695,4983
2092,2700,4976
2091,2697,4983
2093,2697,4976
2093,2697,4976
2090,2696,4975
2093,2700,4980
2090,2697,4975
2092,2697,4985
2092,2696,4985
2092,2696,4982
2092,2695,4982
2092,2695,4983
2092,2695,4982
2093,2698,4980
2092,2695,4981
2092,2699,4981
2090,2699,4981
2090,2697,4981
2088,2697,4979
2088,2697,4975
2088,2701,4975
2090,2701,4974
2090,2699,4974
2088,2699,4972
2088,2699,4972
2087,2699,4972
2087,2699,4972
2087,2699,4971
2087,2695,4971
2086,2695,4969
2086,2694,4969
2083,2694,4969
2083,2694,4970
2089,2695,4969
2089,2693,4969
2092,2693,4967
2092,2692,4967
2093,2692,4967
2093,2692,4969
2089,2695,4969
2089,2694,4969
2089,2694,4974
2089,2694,4974
2091,2694,4974
2091,2694,4983
2088,2692,4986
2088,2695,4986
2088,2695,4995
2088,2692,4995
2090,2692,4995
2090,2692,4996
2089,2692,4998
2089,2694,4998
2088,2694,4998
2088,2693,4998
2089,2693,4998
2089,2693,4996
2088,2693,4995
2088,2692,4995
2089,2692,4995
2089,2691,4996
2089,2695,4995
2088,2698,4994
2089,2696,4995
2087,2696,4995
2087,2696,4994
2084,2696,4994
2084,2696,4992
2083,2695,4992
2083,2694,4992
2083,2694,4992
2083,2694,4991
2085,2694,4991
2085,2694,4986
2086,2693,4984
2086,2692,4984
2087,2692,4984
2087,2695,4980
2087,2695,4980
2087,2695,4974
2085,2691,4975
2085,2693,4975
2086,2693,4975
2086,2687,4972
2088,2687,4972
2088,2687,4967
2087,2688,4972
2087,2687,4972
2087,2687,4972
2087,2690,4974
2087,2690,4974
2087,2690,4977
2086,2692,4976
2086,2689,4976
2091,2689,4976
2091,2695,4980
2092,2695,4980
2092,2695,4977
2091,2692,4977
2091,2692,4978
2091,2698,4978
2090,2697,4980
2089,2697,4980
2089,2697,4982
2090,2696,4982
2090,2696,4982
2090,2694,4982
2087,2695,4987
2086,2693,4989
2086,2698,4999
2086,2692,4989
2085,2692,4989
2086,2695,5001
2087,2697,5001
2086,2698,5003
2087,2700,5001
2084,2698,5003
2081,2698,5000
2081,2698,5001
2080,2697,5000
2078,2696,4998
2078,2693,4995
2080,2688,5000
2079,2690,4996
2082,2690,4996
2082,2690,4999
2085,2689,4999
2085,2689,5000
2085,2690,5000
2084,2691,5001
2082,2691,5001
2082,2691,5003
2086,2693,5003
2086,2693,4998
2086,2695,4998
2083,2694,4999
2083,2694,4999
2088,2695,4999
2088,2695,4998
2088,2696,4998
2083,2697,4994
2085,2697,4994
2085,2697,4996
2081,2695,4998
2082,2694,4990
2078,2694,4995
2087,2695,4998
2087,2695,4993
2086,2694,4993
2086,2694,4991
2086,2695,4991
2084,2692,4990
2082,2692,4990
2082,2692,4993
2082,2692,4993
2079,2694,4989
2082,2692,4988
2078,2694,4989
2078,2694,4989
2080,2691,4989
2080,2691,4993
2080,2689,4993
2076,2689,4998
2076,2686,4998
2076,2686,4998
2071,2687,5000
2071,2687,4995
2071,2688,4995
2075,2688,5000
2074,2689,5000
2080,2686,4988
2074,2689,4995
2074,2686,4995
2080,2686,5001
2080,2688,5001
2082,2688,5001
2081,2686,5000
2085,2686,5002
2078,2694,5001
2081,2684,5000
2084,2684,5000
2082,2684,5004
2081,2683,5007
2085,2686,5009
2081,2686,5007
2084,2686,5007
2081,2685,5009
2084,2685,5010
2085,2686,5010
2084,2683,5010
2082,2683,5010
2080,2682,5009
2080,2682,5007
2080,2682,5007
2081,2682,5011
2081,2685,5011
2085,2685,5011
2082,2685,5007
2082,2685,5007
2082,2685,5007
2081,2685,5004
2081,2685,5004
2082,2685,5004
2080,2680,5003
2080,2680,5004
2080,2682,5004
2081,2682,5001
2081,2682,5001
2082,2682,5001
2079,2685,5001
2079,2685,4998
2079,2682,4998
2073,2682,4999
2073,2680,4999
2074,2680,4999
2074,2677,4998
2083,2678,4992
2078,2694,5001
2074,2676,4998
2080,2676,4998
2080,2678,5007
2080,2678,5005
2080,2676,5005
2080,2678,5015
2081,2678,5024
2081,2694,5001
2080,2678,5022
2080,2680,5022
2081,2680,5019
2081,2682,5019
2081,2682,5019
2082,2680,5021
2084,2679,5019
2081,2694,5017
2082,2679,5021
2080,2679,5021
2078,2679,5016
2078,2679,5010
2078,2680,5010
2082,2680,5012
2082,2678,5012
2082,2678,5012
2083,2679,5011
2083,2679,5012
2083,2677,5012
2082,2677,5013
2082,2680,5013
2080,2680,5013
2082,2679,5013
2082,2679,5010
2082,2677,5010
2081,2677,5004
2081,2674,5004
2081,2674,5004
2083,2674,4996
2084,2671,4995
2084,2679,4997
2084,2668,4995
2085,2668,4995
2083,2665,4991
2083,2665,4992
2083,2664,4992
2081,2664,4989
2082,2664,4989
2082,2664,4991
2082,2663,4991
2082,2663,5002
2083,2662,5002
2083,2662,4998
2083,2660,4998
2083,2660,4998
2082,2666,5002
2082,2666,5002
2082,2667,5002
2083,2667,5000
2084,2667,5000
2084,2667,5003
2085,2664,5003
2085,2664,5006
2084,2664,5006
2084,2664,5012
2084,2665,5012
2083,2665,5012
2079,2661,5014
2079,2661,5023
2080,2663,5023
2080,2663,5022
2082,2664,5022
2082,2664,5022
2078,2666,5022
2078,2666,5025
2081,2664,5025
2081,2664,5021
2081,2663,5021
2081,2663,5026
2083,2665,5026
2083,2665,5019
2081,2665,5019
2081,2665,5014
2079,2665,5014
2079,2665,5014
2079,2663,5017
2079,2663,5014
2078,2663,5014
2078,2665,5016
2077,2660,5016
2077,2660,5015
2074,2659,5015
2074,2659,5014
2072,2657,5014
2072,2657,5019
2080,2657,5019
2080,2656,5019
2079,2660,5015
2079,2660,5013
2085,2660,5013
2085,2660,5015
2086,2660,5015
2086,2659,5015
2084,2661,5009
2086,2664,5008
2084,2679,5007
2087,2661,5008
2087,2661,5003
2085,2661,5003
2088,2663,5002
2088,2667,5003
2088,2667,4999
2083,2662,4999
2083,2662,5002
2084,2667,5002
2084,2667,4998
2084,2667,4998
2084,2662,4998
2085,2663,4999
2085,2663,4995
2081,2663,4995
2081,2664,4999
2084,2664,4999
2084,2662,4999
2082,2662,5002
2082,2662,5009
2082,2662,5009
2082,2661,5009
2076,2661,5009
2076,2657,5009
2077,2657,5012
2077,2657,5012
2076,2657,5012
2076,2659,5013
2078,2661,4994
2082,2661,4994
2082,2659,4994
2082,2659,4997
2085,2659,4997
2085,2659,4997
2088,2659,4998
2088,2659,5002
2088,2659,5002
2088,2659,5006
2083,2659,5006
2083,2656,5006
2087,2658,5006
2087,2658,5007
2086,2658,5007
2086,2657,5007
2086,2657,5007
2086,2660,5007
2090,2660,5007
2090,2660,5004
2090,2660,5004
2090,2659,5005
2087,2659,5005
2087,2659,5005
2088,2660,5000
2088,2660,5002
2090,2660,5002
2090,2657,4997
2090,2657,4997
2090,2659,4997
2091,2659,5000
2093,2659,4995
2087,2659,4994
2088,2662,4990
2081,2662,4994
2093,2659,4992
2090,2659,4992
2090,2660,4992
2089,2660,4992
2089,2659,4992
2083,2659,4996
2083,2658,4996
2083,2658,4998
2082,2654,5005
2077,2654,5005
2077,2652,5005
2080,2652,5009
2080,2648,5009
2080,2648,5009
2085,2648,5012
2089,2648,5012
2089,2653,5012
2090,2653,5013
2090,2651,5013
2090,2651,5010
2090,2653,5007
2090,2655,5004
2092,2659,4994
2090,2651,5004
2090,2651,5002
2090,2654,5001
2093,2654,5001
2093,2655,5001
2091,2655,5002
2091,2655,5005
2092,2655,5004
2092,2655,5005
2092,2654,5005
2092,2654,5004
2092,2654,5004
2092,2654,5004
2092,2652,5000
2093,2652,5000
2093,2651,5000
2093,2651,5004
2093,2653,5004
2093,2653,5001
2092,2653,4999
2093,2653,4999
2093,2654,4999
2094,2654,5001
2094,2651,5001
2094,2651,4995
2092,2654,4992
2090,2654,4992
2090,2654,4992
2094,2654,4993
2094,2654,4993
2094,2654,4984
2095,2654,4980
2093,2654,4980
2093,2651,4980
2095,2651,4979
2095,2648,4979
2095,2648,4974
2094,2649,4977
2094,2649,4977
2094,2646,4977
2095,2646,4974
2095,2643,4974
2095,2643,4978
2093,2639,4982
2092,2639,4982
2092,2639,4982
2095,2639,4990
2095,2637,4990
2095,2637,4993
2092,2637,5003
2094,2637,5003
2094,2640,5003
2093,2640,5008
2093,2640,5008
2093,2640,5004
2090,2641,5008
2095,2641,5008
2095,2641,5008
2093,2641,5007
2093,2644,5007
2093,2644,5005
2094,2644,5003
2096,2644,5003
2096,2644,5003
2095,2644,5004
2095,2643,5004
2095,2643,5008
2095,2643,5002
2095,2643,5002
2095,2640,5002
2095,2640,5002
2095,2641,5002
2095,2641,5010
2093,2643,5002
2091,2643,5002
2091,2645,5002
2094,2645,5004
2094,2645,5004
2094,2645,5005
2093,2641,5001
2090,2641,5001
2090,2641,5001
2090,2641,4998
2090,2640,4998
2090,2640,4996
2085,2636,4992
2086,2636,4992
2086,2638,4992
2092,2638,4994
2092,2639,4994
2092,2639,4990
2094,2636,4990
2095,2636,4990
2095,2639,4990
2093,2639,4987
2097,2641,4987
2092,2641,4989
2095,2641,4987
2095,2642,4987
2094,2642,4989
2095,2641,4989
2094,2642,4991
2091,2635,4998
2095,2636,4989
2091,2635,4999
2094,2642,5005
2088,2637,5007
2089,2642,5005
2088,2636,5007
2088,2636,5006
2087,2637,5007
2085,2637,5007
2085,2636,5004
2082,2637,4996
2084,2635,4994
2082,2637,4996
2082,2634,4996
2086,2634,4991
2086,2636,4989
2087,2636,4989
2087,2634,4992
2091,2634,4992
2091,2634,4992
2091,2634,4990
2091,2632,5001
2092,2632,5001
2092,2636,4995
2094,2636,4995
2094,2633,4995
2096,2633,5000
2096,2635,5003
2092,2635,5003
2092,2633,4996
2092,2633,4996
2092,2633,4996
2091,2633,5001
2091,2631,4999
2097,2631,4999
2097,2633,4998
2092,2633,4998
2092,2631,4998
2094,2631,4993
2094,2635,4993
2096,2635,4993
2096,2632,4991
2096,2632,4991
2096,2633,4991
2096,2629,4989
2096,2632,4990
2091,2635,4987
2095,2629,4989
2095,2632,4991
2096,2632,4991
2096,2630,4991
2096,2630,4985
2099,2633,4984
2098,2633,4984
2098,2632,4984
2099,2632,4984
2099,2630,4984
2100,2630,4984
2100,2628,4991
2096,2628,4991
2096,2624,4997
2096,2624,4997
2093,2625,5002
2096,2625,5003
2094,2625,5002
2094,2621,5009
2093,2621,5009
2093,2623,5006
2092,2623,5006
2092,2621,5007
2088,2621,5007
2088,2621,5007
2088,2621,5007
2088,2620,5004
2084,2620,5004
2084,2617,5002
2088,2617,5002
2088,2614,4999
2092,2614,4999
2092,2616,4998
2095,2615,5000
2094,2615,5000
2094,2618,5000
2096,2617,4998
2092,2617,5001
2095,2617,4998
2095,2617,4999
2095,2617,4999
2095,2618,5000
2097,2618,5000
2097,2616,4998
2097,2616,4998
2096,2618,4997
2096,2618,4995
2095,2620,4995
2095,2619,4994
2096,2619,4994
2096,2617,4989
2095,2617,4989
2099,2619,4985
2099,2619,4990
2098,2619,4986
2099,2620,4984
2099,2620,4984
2099,2621,4984
2098,2621,4984
2098,2621,4984
2098,2618,4984
2098,2618,4980
2098,2618,4980
2098,2618,4983
2102,2618,4983
2102,2618,4979
2098,2615,4979
2098,2616,4990
2100,2616,4990
2100,2614,4993
2097,2614,4993
2097,2614,4998
2097,2612,4998
2097,2612,4998
2095,2612,4998
2098,2612,5001
2093,2615,4999
2098,2612,4994
2100,2612,4994
2100,2611,4990
2098,2611,4990
2097,2608,4989
2097,2610,4980
2097,2610,4977
2099,2607,4977
2099,2607,4975
2099,2605,4975
2099,2605,4976
2096,2600,4976
2096,2600,4978
2096,2598,4978
2095,2615,4999
2099,2600,4985
2097,2602,4987
2097,2602,4989
2096,2603,4989
2100,2604,4988
2097,2602,4991
2097,2602,4989
2097,2607,4989
2099,2607,4986
2099,2607,4984
2099,2606,4984
2098,2605,4983
2096,2605,4980
2096,2606,4980
2092,2604,4981
2091,2604,4979
2090,2603,4977
2092,2602,4977
2092,2602,4977
2094,2609,4977
2098,2609,4976
2098,2607,4976
2100,2607,4973
2100,2605,4973
2098,2606,4974
2098,2609,4975
2094,2606,4981
2094,2606,4984
2094,2604,4984
2092,2604,4990
2092,2605,4990
2092,2605,4989
2089,2601,4989
2089,2601,4990
2089,2603,4990
2089,2605,4986
2089,2605,4985
2088,2605,4979
2088,2606,4979
2087,2603,4983
2092,2603,4977
2092,2605,4977
2093,2605,4977
2093,2604,4977
2094,2604,4976
2094,2604,4976
2096,2604,4981
2097,2604,4983
2091,2600,4979
2097,2604,4987
2097,2600,4987
2099,2600,4990
2099,2602,4990
2097,2602,4988
2097,2601,4988
2099,2601,4984
2099,2602,4984
2097,2602,4986
2097,2600,4986
2098,2600,4982
2098,2600,4982
2099,2600,4983
2099,2602,4983
2098,2604,4980
2097,2602,4974
2100,2604,4977
2100,2600,4977
2096,2600,4976
2096,2602,4976
2099,2602,4973
2098,2600,4973
2097,2602,4974
2102,2600,4972
2102,2601,4972
2101,2600,4971
2101,2600,4971
2101,2600,4971
2101,2600,4971
2100,2600,4965
2100,2601,4965
2099,2601,4967
2099,2601,4967
2099,2601,4967
2101,2601,4966
2101,2603,4966
2101,2603,4967
2101,2602,4967
2098,2602,4971
2098,2601,4971
2098,2601,4978
2098,2598,4978
2098,2599,4979
2099,2599,4989
2099,2596,4989
2097,2596,4985
2097,2595,4985
2097,2597,4987
2092,2596,4991
2089,2596,4993
2089,2594,4993
2091,2590,4993
2089,2590,4993
2089,2590,4992
2090,2590,4988
2095,2594,4984
2098,2592,4986
2098,2590,4988
2098,2590,4987
2098,2593,4987
2098,2593,4986
2098,2594,4986
2097,2592,4985
2097,2592,4985
2097,2592,4986
2097,2593,4986
2096,2593,4984
2096,2594,4984
2097,2594,4984
2096,2594,4984
2096,2594,4983
2096,2595,4983
2097,2595,4981
2097,2594,4979
2095,2596,4984
2098,2594,4980
2098,2594,4980
2098,2594,4980
2098,2594,4973
2098,2594,4973
2098,2593,4978
2100,2593,4978
2100,2593,4973
2100,2595,4973
2099,2595,4972
2099,2595,4972
2098,2593,4971
2100,2593,4971
2100,2593,4971
2100,2593,4971
2097,2593,4964
2097,2596,4964
2101,2594,4965
2098,2594,4965
2098,2594,4964
2098,2593,4964
2106,2593,4961
2106,2594,4961
2101,2594,4965
2101,2594,4965
2101,2594,4962
2101,2593,4962
2106,2593,4962
2106,2593,4960
2103,2596,4958
2095,2592,4984
2102,2596,4958
2102,2596,4960
2102,2590,4960
2099,2590,4960
2099,2590,4963
2100,2591,4967
2095,2587,4984
2102,2591,4967
2102,2591,4974
2102,2587,4974
2101,2587,4974
2101,2587,4977
2099,2587,4979
2095,2585,4984
2101,2587,4979
2101,2584,4981
2098,2587,4981
2099,2588,4974
2098,2587,4981
2098,2587,4969
2098,2586,4969
2100,2586,4969
2100,2586,4967
2102,2582,4964
2102,2581,4964
2101,2581,4964
2101,2578,4962
2101,2579,4960
2101,2579,4971
2101,2576,4971
2097,2576,4971
2097,2576,4968
2097,2578,4968
2100,2578,4975
2100,2575,4975
2094,2575,4975
2094,2575,4971
2092,2572,4975
2088,2573,4971
2092,2576,4975
2095,2576,4975
2095,2574,4972
2093,2574,4972
2093,2574,4968
2094,2576,4965
2096,2573,4962
2101,2577,4960
2099,2576,4963
2099,2581,4963
2096,2581,4957
2096,2579,4957
2096,2582,4956
2097,2579,4951
2095,2577,4946
2096,2582,4956
2097,2582,4956
2097,2583,4944
2101,2583,4944
2101,2583,4938
2099,2581,4947
2103,2582,4953
2095,2580,4946
2103,2581,4961
2105,2579,4967
2105,2581,4967
2103,2581,4967
2103,2576,4975
2103,2576,4975
2103,2576,4980
2105,2577,4982
2105,2576,4982
2106,2576,4982
2106,2580,4981
2107,2580,4981
2107,2580,4984
2105,2577,4981
2105,2578,4981
2104,2578,4981
2104,2575,4978
2102,2575,4978
2102,2575,4976
2105,2576,4978
2105,2576,4978
2105,2576,4978
2105,2573,4977
2105,2573,4977
2105,2573,4972
2107,2576,4977
2107,2575,4977
2103,2575,4977
2103,2572,4976
2106,2574,4977
2105,2582,4975
2106,2577,4973
2105,2573,4975
2106,2574,4973
2103,2573,4970
2106,2576,4973
2109,2575,4971
2106,2575,4971
2106,2575,4968
2106,2575,4968
2106,2574,4968
2107,2572,4964
2105,2573,4970
2107,2572,4964
2107,2574,4964
2106,2574,4962
2106,2572,4962
2108,2574,4961
2106,2574,4960
2105,2580,4955
2108,2573,4961
2112,2573,4961
2112,2574,4959
2108,2574,4959
2108,2574,4955
2109,2573,4954
2107,2577,4952
2107,2576,4960
2107,2577,4953
2107,2574,4953
2105,2574,4955
2105,2571,4955
2102,2571,4955
2100,2568,4966
2100,2568,4970
2096,2564,4973
2096,2565,4973
2097,2565,4973
2105,2565,4980
2105,2565,4980
2105,2566,4980
2107,2566,4982
2107,2565,4982
2105,2565,4982
2105,2569,4979
2108,2566,4983
2105,2580,4977
2105,2569,4979
2106,2569,4979
2109,2571,4976
2109,2571,4974
2109,2571,4974
2103,2571,4982
2103,2570,4982
2111,2570,4982
2111,2570,4972
2111,2570,4972
2111,2568,4972
2107,2568,4975
2107,2566,4975
2104,2566,4975
2105,2569,4976
2105,2569,4979
2105,2568,4979
2109,2568,4973
2109,2565,4973
2107,2565,4973
2107,2565,4972
2107,2565,4971
2107,2568,4971
2110,2568,4966
2110,2566,4966
2112,2566,4966
2111,2566,4968
2111,2566,4973
2111,2568,4973
2107,2568,4971
2108,2567,4971
2108,2567,4965
2108,2569,4965
2108,2569,4965
2108,2569,4965
2110,2569,4965
2109,2571,4965
2109,2571,4961
2110,2565,4961
2110,2565,4960
2110,2568,4960
2111,2568,4960
2111,2569,4960
2111,2569,4959
2113,2568,4959
2111,2568,4956
2114,2572,4959
2108,2567,4957
2111,2568,4958
2112,2565,4958
2112,2565,4964
2112,2562,4964
2110,2562,4964
2107,2561,4962
2107,2561,4973
2110,2563,4973
2110,2563,4973
2110,2561,4973
2108,2561,4973
2106,2562,4978
2106,2562,4979
2107,2560,4979
2107,2560,4976
2109,2559,4976
2109,2559,4977
2103,2559,4977
2103,2559,4970
2105,2561,4970
2105,2561,4969
2110,2562,4969
2110,2562,4962
2108,2560,4962
2108,2560,4958
2108,2557,4958
2108,2557,4955
2103,2557,4955
2103,2555,4955
2102,2554,4955
2102,2554,4952
2097,2547,4952
2097,2547,4948
2094,2547,4948
2094,2549,4948
2095,2543,4948
2095,2543,4949
2096,2543,4949
2096,2543,4946
2094,2543,4946
2094,2545,4946
2100,2546,4949
2100,2546,4948
2105,2550,4948
2105,2550,4955
2108,2550,4955
2108,2555,4955
2109,2555,4953
2109,2555,4955
2111,2555,4955
2111,2555,4954
2111,2555,4954
2111,2558,4954
2111,2555,4959
2111,2555,4957
2112,2555,4957
2112,2560,4958
2117,2560,4958
2117,2556,4958
2112,2556,4956
2112,2558,4956
2112,2558,4955
2114,2560,4953
2116,2560,4953
2116,2558,4953
2114,2558,4952
2114,2560,4952
2114,2560,4956
2114,2561,4953
2117,2561,4953
2117,2561,4953
2116,2561,4953
2116,2558,4953
2116,2558,4961
2114,2559,4964
2114,2559,4964
2114,2556,4964
2111,2556,4969
2111,2556,4969
2111,2556,4977
2115,2556,4976
2113,2556,4976
2113,2555,4976
2115,2555,4976
2115,2558,4976
2115,2558,4976
2113,2558,4975
2114,2558,4976
2114,2572,4959
2114,2557,4976
2114,2557,4971
2116,2558,4970
2115,2558,4970
2115,2557,4970
2115,2557,4971
2115,2557,4971
2115,2557,4969
2114,2557,4970
2116,2557,4970
2116,2558,4970
2117,2558,4968
2117,2554,4968
2117,2554,4970
2113,2558,4971
2117,2558,4971
2117,2559,4971
2116,2559,4969
2116,2555,4969
2116,2555,4967
2116,2559,4968
2117,2559,4968
2117,2555,4968
2116,2555,4964
2116,2557,4964
2116,2557,4963
2119,2556,4960
2116,2556,4960
2116,2559,4960
2118,2559,4959
2118,2559,4959
2118,2559,4957
2115,2559,4958
2114,2559,4958
2114,2559,4958
2113,2559,4955
2113,2559,4955
2113,2559,4952
2114,2559,4954
2114,2559,4954
2114,2558,4954
2110,2558,4951
2110,2558,4951
2110,2558,4954
2105,2557,4950
2110,2557,4950
2110,2551,4950
2109,2551,4955
2109,2550,4955
2109,2550,4960
2111,2552,4964
2116,2552,4964
2116,2551,4964
2115,2551,4970
2115,2555,4976
2114,2554,4980
2118,2555,4974
2112,2554,4980
2118,2555,4974
2118,2555,4977
2114,2559,4976
2115,2559,4976
2115,2558,4976
2115,2558,4973
2115,2559,4973
2115,2559,4975
2116,2558,4970
2117,2558,4970
2117,2559,4970
2115,2559,4969
2117,2558,4970
2112,2557,4972
2115,2558,4970
2115,2558,4970
2118,2558,4970
2115,2558,4971
2108,2567,4969
2117,2558,4970
2117,2561,4970
2116,2561,4971
2116,2561,4971
2116,2561,4969
2121,2557,4968
2115,2557,4968
2115,2559,4968
2117,2559,4966
2117,2559,4966
2117,2559,4964
2117,2559,4964
2117,2559,4961
2116,2559,4961
2121,2561,4961
2121,2560,4961
2121,2560,4959
2118,2560,4959
2118,2560,4958
2118,2560,4958
2117,2560,4958
2117,2561,4958
2117,2561,4957
2120,2562,4957
2120,2561,4956
2117,2558,4956
2120,2562,4956
2118,2561,4956
2118,2562,4952
2116,2558,4962
2118,2560,4952
2115,2558,4961
2114,2556,4965
2111,2567,4974
2115,2556,4961
2115,2556,4981
2113,2556,4981
2113,2556,4979
2107,2556,4979
2109,2554,4978
2109,2557,4978
2109,2557,4975
2107,2558,4975
2107,2558,4971
2106,2558,4971
2107,2559,4964
2107,2559,4964
2107,2559,4964
2105,2557,4964
2105,2557,4962
2107,2557,4962
2107,2558,4965
2107,2555,4965
2107,2555,4962
2109,2555,4962
2109,2555,4968
2106,2555,4968
2104,2554,4968
2104,2553,4968
2104,2553,4968
2107,2547,4968
2107,2547,4967
2112,2547,4967
2116,2547,4968
2114,2550,4963
2111,2552,4974
2116,2547,4961
2115,2547,4961
2117,2550,4960
2117,2548,4960
2117,2548,4955
2118,2545,4955
2118,2545,4952
2118,2545,4952
2116,2548,4957
2116,2549,4957
2116,2549,4964
2117,2549,4964
2117,2549,4961
2118,2549,4961
2117,2553,4967
2117,2555,4967
2117,2555,4967
2117,2558,4967
2117,2558,4964
2121,2558,4964
2115,2554,4970
2115,2558,4970
2115,2558,4970
2117,2558,4970
2117,2558,4971
2116,2558,4971
2117,2554,4977
2117,2555,4977
2117,2555,4985
2116,2553,4985
2116,2553,4985
2114,2553,4985
2117,2555,4991
2117,2555,4991
2117,2555,4995
2112,2553,4995
2112,2553,4994
2115,2553,4994
2114,2555,4994
2114,2554,4994
2114,2554,4994
2114,2555,4994
2114,2555,4996
2112,2555,4996
2114,2554,4993
2114,2558,4992
2118,2558,4992
2118,2557,4989
2113,2557,4989
2113,2557,4989
2114,2557,4990
2114,2555,4990
2113,2556,4991
2113,2556,4992
2115,2556,4992
2111,2555,4996
2111,2554,4996
2111,2554,4994
2113,2554,4994
2113,2554,4993
2115,2555,4993
2113,2556,4993
2113,2556,4992
2114,2555,4987
2117,2556,4988
2116,2552,4974
2114,2554,4986
2114,2554,4986
2114,2556,4986
2114,2556,4988
2116,2556,4988
2114,2555,4983
2114,2553,4983
2114,2553,4982
2114,2553,4982
2114,2557,4983
2113,2557,4983
2112,2556,4981
2112,2555,4978
2112,2556,4980
2112,2556,4980
2107,2556,4978
2104,2552,4984
2105,2550,4984
2106,2547,4992
2105,2548,4995
2111,2548,4995
2111,2547,4995
2111,2547,4997
2108,2547,4997
2113,2550,5002
2112,2553,4999
2113,2551,4999
2114,2551,4999
2112,2554,4998
2112,2553,4996
2115,2553,4996
2115,2556,4995
2114,2556,4990
2108,2553,4999
2114,2557,4990
2113,2557,4991
2112,2555,4991
2115,2556,4989
2113,2561,4987
2112,2561,4986
2111,2563,4980
2114,2560,4983
2111,2564,4976
2115,2564,4976
2113,2563,4979
2112,2565,4979
2112,2564,4974
2110,2564,4974
2111,2563,4975
2111,2563,4974
2111,2566,4978
2113,2560,4984
2110,2561,4989
2110,2562,4991
2110,2562,4992
2104,2562,4992
2104,2563,4991
2104,2563,4985
2102,2563,4985
2105,2562,4983
2103,2563,4979
2104,2565,4973
2106,2564,4968
2111,2565,4973
2109,2565,4973
2110,2565,4972
2110,2563,4977
2110,2568,4982
2111,2566,4984
2110,2566,4987
2106,2564,4985
2104,2562,4985
2104,2562,4980
2103,2560,4979
2109,2564,4977
2113,2564,4974
2113,2565,4974
2112,2565,4975
2112,2567,4975
2114,2566,4972
2115,2570,4966
2112,2567,4963
2112,2568,4957
2113,2568,4958
2113,2568,4958
2112,2568,4958
2110,2567,4956
2110,2561,4960
2109,2567,4960
2109,2559,4960
2109,2559,4960
2109,2559,4965
2111,2559,4973
2111,2558,4973
2112,2562,4976
2111,2562,4976
2111,2564,4981
2110,2564,4978
2110,2564,4978
2112,2564,4978
2112,2565,4983
2113,2565,4983
2113,2565,4983
2111,2571,4980
2110,2573,4979
2113,2573,4979
2113,2572,4978
2113,2575,4980
2111,2575,4980
2111,2571,4980
2112,2571,4980
2112,2572,4978
2115,2572,4983
2113,2575,4982
2110,2574,4960
2114,2575,4982
2114,2575,4982
2111,2572,4980
2110,2577,4960
2112,2572,4980
2112,2572,4978
2112,2577,4978
2113,2577,4978
2113,2580,4974
2115,2578,4976
2112,2578,4976
2112,2578,4972
2112,2579,4972
2113,2579,4974
2113,2578,4974
2116,2580,4971
2113,2580,4971
2113,2580,4973
2113,2581,4973
2115,2581,4973
2115,2582,4967
2116,2581,4971
2115,2581,4971
2115,2581,4971
2115,2581,4971
2115,2581,4971
2115,2582,4971
2115,2578,4976
2116,2577,4981
2115,2577,4981
2115,2577,4987
2111,2579,4988
2110,2576,4960
2113,2579,4988
2113,2579,4988
2113,2578,4988
2112,2578,4988
2112,2578,4990
2111,2579,4988
2110,2581,4960
2107,2579,4988
2107,2579,4990
2107,2582,4990
2106,2582,4990
2106,2582,4986
2108,2579,4984
2110,2574,4960
2111,2579,4984
2111,2579,4987
2112,2577,4981
2116,2579,4987
2114,2579,4993
2115,2577,4981
2115,2577,4984
2115,2580,4984
2118,2580,4984
2118,2580,4982
2116,2580,4983
2116,2579,4983
2118,2579,4983
2118,2582,4985
2117,2582,4985
2117,2582,4987
2119,2584,4981
2119,2584,4981
2116,2584,4981
2116,2586,4981
2117,2586,4981
2117,2586,4976
2118,2587,4980
2118,2587,4980
2120,2587,4980
2120,2588,4978
2119,2588,4978
2119,2588,4971
2120,2586,4973
2120,2589,4973
2118,2589,4973
2118,2588,4975
2125,2588,4975
2125,2588,4975
2117,2588,4973
2117,2590,4973
2117,2590,4973
2117,2586,4973
2118,2586,4973
2118,2586,4975
2117,2585,4986
2117,2583,4986
2115,2583,4986
2115,2583,4991
2117,2583,4991
2117,2583,4996
2117,2586,4996
2117,2582,4996
2116,2582,4996
2116,2587,4996
2116,2587,4996
2116,2587,4993
2116,2587,4995
2116,2585,4995
2112,2585,4995
2112,2587,4989
2112,2587,4989
2112,2588,4986
2116,2579,4981
2112,2593,4986
2111,2587,4978
2111,2587,4978
2111,2587,4975
2111,2588,4976
2111,2588,4976
2114,2588,4976
2114,2586,4977
2113,2586,4977
2113,2586,4978
2116,2588,4981
2116,2588,4981
2121,2588,4981
2121,2588,4981
2119,2588,4981
2119,2588,4984
2122,2589,4985
2122,2591,4985
2121,2591,4985
2121,2590,4986
2124,2590,4986
2124,2590,4986
2122,2593,4982
2122,2592,4982
2123,2592,4982
2123,2592,4984
2124,2592,4984
2124,2592,4980
2126,2591,4982
2126,2591,4982
2123,2591,4982
2123,2592,4985
2123,2592,4985
2123,2592,4984
2119,2591,4987
2119,2589,4987
2119,2589,4987
2119,2585,4991
2114,2585,4991
2114,2585,4998
2115,2584,5001
2115,2586,5001
2120,2586,5001
2120,2584,5006
2122,2584,5006
2122,2584,5005
2125,2586,5006
2125,2587,5006
2125,2587,5006
2125,2589,5006
2121,2593,5003
2128,2579,5000
2125,2592,5001
2128,2591,5000
2126,2592,5001
2126,2592,5001
2125,2591,5001
2125,2594,5001
2127,2594,5001
2127,2592,5002
2127,2592,5002
2127,2592,5000
2127,2593,5003
2126,2592,5001
2114,2592,4993
2128,2593,4998
2128,2592,4991
2128,2592,4998
2127,2592,4998
2127,2592,4989
2126,2592,4989
2126,2592,4987
2128,2590,4983
2128,2586,4983
2128,2586,4983
2128,2584,4983
2129,2584,4983
2129,2584,4982
2127,2587,4987
2127,2586,4987
2127,2586,4987
2127,2587,4987
2128,2590,4989
2128,2592,4992
2128,2587,4989
2128,2587,4989
2128,2592,4995
2129,2592,4995
2129,2592,5001
2128,2588,5006
2128,2590,5006
2125,2590,5006
2125,2588,5011
2127,2588,5011
2127,2588,5022
2125,2588,5020
2125,2590,5020
2126,2590,5020
2126,2592,5024
2128,2592,5024
2128,2592,5025
2130,2591,5024
2130,2592,5024
2129,2592,5024
2130,2593,5021
2130,2594,5027
2114,2592,5022
2130,2593,5021
2129,2593,5021
2129,2597,5023
2128,2597,5023
2128,2597,5023
2128,2597,5023
2128,2598,5023
2130,2598,5023
2130,2597,5027
2131,2597,5027
2131,2597,5024
2130,2596,5026
2130,2595,5026
2128,2595,5026
2128,2597,5026
2130,2597,5026
2130,2597,5025
2130,2596,5025
2130,2598,5025
2126,2598,5025
2126,2600,5027
2125,2600,5027
2125,2600,5022
2124,2596,5020
2124,2594,5020
2124,2594,5020
2124,2594,5022
2119,2594,5022
2119,2594,5020
2125,2593,5022
2125,2592,5022
2128,2592,5022
2128,2597,5024
2132,2597,5024
2133,2597,5018
2130,2594,5018
2133,2598,5018
2132,2598,5018
2132,2596,5019
2132,2596,5019
2132,2596,5020
2131,2598,5020
2131,2598,5024
2131,2595,5024
2130,2592,5033
2127,2592,5033
2127,2592,5038
2127,2593,5038
2127,2593,5041
2127,2593,5041
2129,2593,5047
2130,2593,5047
2130,2593,5044
2127,2596,5044
2129,2590,5051
2130,2594,5053
2128,2590,5051
2128,2590,5049
2128,2595,5049
2128,2595,5054
2128,2598,5054
2129,2593,5052
2124,2593,5052
2124,2593,5050
2126,2592,5050
2126,2592,5050
2126,2596,5050
2124,2595,5049
2126,2595,5049
2126,2595,5045
2122,2594,5045
2122,2594,5042
2123,2595,5042
2123,2595,5043
2122,2594,5044
2122,2595,5053
2122,2594,5041
2122,2593,5041
2123,2593,5043
2128,2597,5043
2128,2597,5041
2130,2597,5041
2130,2597,5043
2129,2597,5043
2129,2597,5043
2129,2598,5043
2130,2596,5045
2129,2597,5043
2134,2597,5043
2134,2597,5052
2133,2597,5054
2134,2600,5053
2133,2599,5054
2133,2599,5054
2133,2599,5051
2133,2598,5053
2135,2598,5053
2133,2598,5053
2133,2594,5053
2133,2594,5059
2131,2592,5059
2131,2592,5064
2129,2592,5074
2130,2593,5075
2134,2591,5074
2134,2591,5081
2128,2591,5081
2128,2591,5086
2128,2589,5086
2128,2589,5089
2130,2589,5089
2130,2589,5089
2128,2593,5089
2128,2593,5089
2125,2593,5089
2125,2593,5089
2119,2590,5089
2119,2590,5090
2121,2587,5090
2121,2587,5093
2123,2590,5093
2123,2590,5088
2124,2586,5088
2124,2586,5087
2123,2587,5087
2123,2587,5090
2127,2588,5090
2127,2588,5094
2128,2589,5093
2126,2590,5075
2128,2589,5089
2131,2589,5089
2131,2591,5095
2132,2590,5095
2132,2590,5092
2133,2594,5092
2133,2594,5086
2132,2594,5086
2132,2594,5094
2130,2594,5094
2130,2594,5090
2129,2595,5090
2129,2595,5085
2131,2595,5085
2131,2597,5087
2131,2593,5087
2131,2593,5087
2133,2595,5087
2133,2595,5081
2128,2595,5081
2128,2596,5087
2133,2595,5087
2133,2595,5083
2133,2597,5083
2133,2597,5080
2131,2597,5080
2131,2596,5082
2135,2597,5082
2135,2597,5078
2130,2598,5078
2130,2598,5081
2132,2598,5081
2132,2598,5077
2129,2599,5077
2129,2599,5078
2131,2596,5078
2131,2596,5077
2131,2596,5077
2131,2591,5080
2132,2591,5080
2132,2589,5080
2129,2588,5082
2129,2588,5084
2127,2588,5084
2127,2588,5084
2131,2588,5084
2131,2586,5084
2128,2585,5085
2130,2586,5087
2126,2590,5092
2132,2587,5096
2131,2585,5092
2132,2587,5093
2130,2587,5093
2130,2588,5098
2132,2588,5098
2132,2588,5098
2127,2591,5101
2129,2593,5103
2114,2592,5102
2130,2592,5101
2133,2593,5103
2133,2593,5107
2130,2593,5107
2130,2594,5103
2130,2594,5103
2130,2592,5103
2131,2594,5106
2132,2596,5107
2114,2592,5109
2126,2596,5106
2126,2596,5104
2131,2595,5104
2131,2595,5106
2130,2595,5106
2130,2598,5102
2128,2598,5102
2128,2599,5102
2126,2595,5102
2122,2597,5100
2120,2592,5101
2126,2592,5102
2126,2592,5099
2128,2595,5099
2129,2595,5096
2131,2594,5099
2131,2598,5096
2131,2594,5096
2133,2594,5096
2133,2601,5094
2131,2601,5094
2131,2597,5094
2131,2599,5096
2131,2599,5100
2130,2599,5105
2129,2595,5109
2128,2596,5101
2130,2599,5115
2128,2599,5115
2128,2596,5117
2122,2596,5117
2122,2595,5117
2124,2598,5124
2124,2598,5118
2120,2598,5118
2120,2600,5115
2122,2600,5115
2122,2599,5115
2123,2600,5111
2123,2600,5113
2122,2600,5113
2122,2600,5107
2125,2600,5107
2125,2602,5107
2125,2600,5108
2125,2600,5106
2129,2600,5106
2131,2601,5111
2131,2603,5111
2130,2603,5114
2132,2599,5116
2129,2595,5120
2131,2603,5120
2132,2605,5120
2131,2603,5124
2133,2603,5124
2133,2602,5120
2133,2602,5120
2133,2602,5120
2129,2602,5122
2129,2602,5120
2131,2602,5120
2134,2602,5118
2134,2603,5118
2134,2603,5121
2131,2605,5121
2136,2609,5118
2134,2605,5116
2136,2604,5118
2136,2604,5119
2132,2605,5119
2132,2605,5115
2135,2605,5115
2134,2608,5116
2135,2609,5115
2133,2608,5117
2133,2610,5117
2135,2611,5115
2133,2608,5117
2134,2606,5118
2134,2608,5117
2129,2605,5126
2134,2602,5117
2129,2605,5131
2129,2605,5131
2129,2604,5136
2129,2601,5136
2129,2601,5138
2128,2607,5138
2128,2607,5142
2123,2607,5142
2123,2606,5142
2123,2601,5142
2123,2601,5142
2119,2601,5142
2119,2601,5142
2119,2601,5141
2117,2602,5141
2124,2602,5117
2117,2602,5141
2117,2602,5141
2127,2602,5141
2127,2604,5141
2128,2606,5142
2128,2602,5141
2128,2607,5142
2132,2607,5142
2132,2607,5142
2132,2607,5141
2129,2609,5142
2127,2602,5141
2129,2608,5142
2129,2608,5144
2128,2608,5144
2128,2609,5144
2128,2609,5142
2129,2611,5146
2129,2602,5141
2129,2612,5146
2129,2612,5142
2129,2612,5142
2129,2612,5142
2129,2612,5138
2128,2612,5142
2130,2613,5137
2130,2610,5117
2128,2613,5142
2128,2613,5139
2128,2614,5135
2130,2613,5137
2128,2614,5135
2128,2614,5135
2129,2614,5135
2129,2614,5135
2129,2614,5138
2133,2614,5135
2133,2615,5135
2133,2615,5133
2132,2615,5133
2132,2619,5133
2132,2619,5135
2132,2619,5130
2130,2613,5137
2132,2618,5130
2132,2618,5131
2132,2618,5131
2132,2620,5131
2130,2620,5130
2131,2619,5136
2129,2620,5131
2131,2615,5136
2131,2615,5133
2128,2614,5143
2127,2620,5131
2128,2613,5143
2128,2613,5144
2128,2613,5144
2129,2613,5149
2128,2614,5148
2129,2620,5149
2129,2620,5146
2127,2620,5146
2127,2613,5146
2128,2613,5141
2128,2613,5142
2128,2609,5142
2128,2609,5141
2129,2609,5141
2129,2611,5141
2129,2611,5138
2129,2612,5140
2129,2612,5140
2128,2612,5143
2128,2608,5143
2128,2608,5145
2127,2608,5148
2129,2614,5148
2127,2611,5148
2130,2611,5153
2130,2613,5153
2127,2613,5156
2127,2612,5156
2126,2612,5157
2126,2615,5157
2124,2615,5161
2124,2615,5161
2125,2615,5166
2123,2618,5161
2123,2619,5161
2123,2619,5163
2119,2619,5163
2119,2616,5163
2118,2616,5158
2118,2613,5158
2121,2615,5158
2118,2616,5158
2124,2616,5159
2126,2619,5151
2126,2623,5151
2122,2623,5151
2122,2621,5151
2122,2623,5154
2123,2615,5148
2122,2627,5154
2120,2627,5144
2120,2626,5145
2120,2630,5138
2118,2615,5148
2121,2630,5135
2121,2630,5135
2122,2630,5133
2126,2628,5133
2126,2628,5134
2125,2628,5134
2125,2628,5143
2128,2628,5143
2128,2628,5143
2130,2628,5146
2130,2624,5146
2128,2624,5157
2126,2624,5165
2130,2624,5174
2129,2627,5171
2126,2626,5165
2130,2626,5171
2129,2627,5169
2129,2630,5169
2127,2630,5170
2130,2631,5173
2127,2627,5170
2130,2632,5168
2130,2631,5168
2130,2631,5169
2130,2631,5167
2131,2631,5167
2127,2633,5170
2127,2633,5171
2129,2633,5174
2131,2633,5173
2131,2634,5172
2131,2632,5172
2129,2632,5170
2131,2634,5169
2131,2635,5170
2131,2637,5162
2128,2637,5169
2129,2641,5165
2129,2640,5165
2130,2640,5167
2130,2638,5163
2128,2640,5163
2128,2640,5162
2130,2639,5162
2129,2641,5160
2130,2640,5160
2130,2640,5160
2129,2641,5162
2130,2642,5161
2123,2642,5161
2123,2641,5158
2124,2638,5160
2116,2631,5168
2122,2633,5172
2127,2633,5172
2127,2634,5178
2128,2632,5180
2129,2632,5180
2129,2637,5188
2130,2636,5185
2126,2640,5181
2131,2640,5181
2131,2644,5183
2130,2643,5181
2129,2643,5181
2129,2644,5182
2130,2644,5182
2130,2642,5176
2129,2643,5176
2127,2643,5176
2127,2644,5181
2129,2644,5181
2131,2643,5181
2131,2644,5179
2129,2643,5181
2129,2646,5180
2130,2646,5180
2130,2645,5183
2128,2645,5183
2128,2649,5181
2126,2649,5181
2126,2645,5178
2130,2647,5180
2135,2648,5177
2129,2647,5180
2129,2650,5175
2132,2650,5175
2134,2652,5173
2135,2653,5175
2130,2652,5173
2130,2652,5172
2133,2652,5172
2133,2651,5173
2130,2651,5173
2130,2654,5167
2129,2654,5167
2129,2655,5168
2129,2655,5168
2129,2652,5169
2133,2652,5169
2133,2656,5168
2131,2656,5168
2131,2656,5166
2133,2656,5166
2133,2657,5167
2129,2657,5167
2129,2656,5166
2131,2656,5166
2131,2655,5164
2130,2655,5164
2130,2650,5174
2130,2650,5174
2130,2652,5176
2129,2652,5176
2129,2652,5184
2131,2652,5184
2131,2652,5188
2129,2652,5188
2127,2654,5190
2135,2654,5186
2126,2654,5190
2125,2656,5183
2135,2654,5178
2125,2655,5183
2127,2656,5173
2126,2656,5173
2126,2652,5173
2123,2652,5173
2123,2651,5171
2124,2651,5171
2124,2653,5166
2121,2653,5166
2121,2648,5166
2116,2648,5166
2116,2647,5165
2112,2647,5165
2112,2646,5164
2111,2646,5164
2111,2645,5167
2111,2645,5167
2111,2645,5169
2109,2645,5169
2109,2647,5165
2121,2647,5165
2121,2647,5167
2123,2652,5167
2123,2657,5169
2124,2657,5169
2124,2657,5174
2128,2657,5174
2128,2657,5175
2126,2660,5175
2126,2664,5176
2127,2664,5176
2127,2663,5175
2129,2663,5175
2129,2663,5179
2130,2665,5179
2130,2661,5177
2130,2661,5177
2130,2664,5179
2127,2664,5179
2127,2664,5178
2127,2663,5178
2127,2663,5172
2128,2663,5172
2128,2666,5173
2127,2666,5173
2127,2666,5173
2129,2666,5173
2129,2666,5173
2129,2670,5173
2129,2668,5176
2127,2668,5176
2127,2668,5175
2127,2667,5175
2127,2667,5174
2127,2666,5174
2130,2665,5183
2123,2665,5183
2123,2665,5193
2126,2664,5193
2126,2664,5194
2126,2663,5194
2127,2663,5197
2126,2663,5197
2126,2663,5200
2124,2664,5200
2124,2664,5205
2124,2664,5205
2126,2667,5201
2129,2667,5201
2129,2667,5200
2124,2669,5200
2124,2669,5202
2124,2669,5202
2129,2669,5197
2131,2669,5197
2127,2670,5197
2127,2672,5201
2135,2672,5199
2128,2672,5201
2128,2672,5198
2128,2671,5198
2128,2671,5193
2128,2672,5193
2127,2671,5199
2129,2674,5202
2125,2672,5199
2125,2671,5202
2125,2671,5198
2128,2671,5196
2125,2671,5198
2127,2671,5202
2125,2671,5192
2126,2671,5202
2128,2674,5191
2128,2674,5196
2128,2676,5196
2123,2675,5188
2124,2675,5188
2124,2675,5190
2126,2675,5190
2123,2675,5188
2125,2675,5186
2123,2675,5188
2123,2675,5189
2115,2676,5184
2118,2670,5184
2129,2670,5171
2119,2671,5183
2126,2670,5184
2119,2671,5180
2119,2670,5180
2127,2671,5186
2124,2673,5189
2126,2670,5184
2124,2673,5200
2128,2671,5201
2126,2671,5184
2126,2671,5201
2126,2671,5208
2123,2672,5208
2123,2672,5209
2123,2675,5209
2126,2672,5207
2125,2674,5208
2121,2671,5184
2125,2674,5205
2125,2674,5205
2124,2678,5210
2123,2678,5210
2123,2678,5206
2124,2677,5206
2125,2677,5205
2121,2676,5202
2125,2677,5205
2121,2675,5204
2121,2675,5208
2121,2675,5208
2127,2676,5206
2125,2676,5206
2125,2676,5206
2124,2676,5206
2124,2676,5206
2124,2678,5206
2126,2674,5205
2122,2674,5205
2122,2674,5205
2124,2679,5205
2124,2679,5203
2124,2681,5203
2126,2679,5201
2125,2679,5201
2125,2679,5202
2124,2678,5202
2124,2678,5201
2124,2680,5201
2128,2681,5198
2123,2681,5198
2123,2681,5196
2123,2680,5196
2123,2680,5196
2123,2680,5196
2126,2681,5195
2125,2681,5195
2125,2681,5197
2124,2683,5197
2124,2683,5197
2124,2684,5197
2120,2683,5192
2123,2683,5192
2123,2683,5192
2125,2682,5192
2125,2682,5193
2125,2685,5193
2123,2681,5189
2123,2681,5189
2123,2681,5193
2123,2683,5193
2123,2683,5195
2123,2680,5195
2123,2676,5201
2117,2676,5201
2117,2676,5206
2117,2680,5206
2117,2680,5208
2117,2680,5208
2116,2682,5208
2112,2682,5208
2112,2682,5204
2111,2680,5204
2111,2680,5205
2111,2681,5205
2113,2681,5196
2113,2683,5196
2111,2683,5196
2111,2683,5196
2111,2683,5192
2111,2682,5192
2112,2682,5188
2112,2678,5188
2110,2678,5188
2111,2674,5184
2111,2674,5185
2111,2675,5185
2116,2675,5186
2120,2675,5188
2121,2673,5202
2120,2675,5192
2120,2674,5192
2122,2674,5190
2122,2672,5190
2123,2672,5190
2125,2671,5191
2125,2671,5194
2125,2675,5194
2124,2675,5198
2124,2675,5198
2122,2675,5198
2122,2678,5199
2122,2678,5202
2122,2679,5202
2124,2679,5206
2124,2682,5206
2123,2682,5206
2126,2683,5207
2126,2683,5202
2126,2682,5202
2123,2682,5204
2123,2684,5204
2125,2684,5204
2122,2684,5201
2122,2684,5198
2122,2687,5198
2123,2687,5198
2123,2685,5198
2123,2685,5198
2123,2689,5200
2123,2687,5196
2129,2670,5201
2122,2687,5200
2122,2687,5206
2117,2686,5206
2117,2686,5212
2120,2684,5212
2120,2684,5216
2120,2682,5216
2122,2682,5216
2118,2685,5221
2118,2685,5222
2118,2688,5222
2120,2690,5230
2118,2691,5222
2120,2670,5201
2120,2690,5227
2120,2687,5227
2120,2687,5225
2122,2688,5225
2122,2688,5223
2117,2690,5223
2117,2690,5218
2118,2690,5218
2118,2690,5221
2120,2692,5221
2120,2692,5217
2118,2692,5217
2117,2690,5219
2118,2691,5223
2122,2691,5219
2122,2691,5223
2116,2691,5223
2116,2691,5223
2117,2691,5223
2116,2692,5224
2118,2692,5220
2120,2689,5215
2118,2692,5221
2116,2691,5215
2121,2691,5217
2121,2691,5216
2118,2696,5213
2117,2695,5214
2118,2694,5201
2118,2696,5220
2117,2694,5220
2117,2694,5210
2115,2695,5210
2115,2695,5210
2114,2691,5210
2114,2691,5209
2112,2693,5209
2112,2693,5206
2109,2691,5206
2109,2691,5208
2112,2690,5208
2112,2690,5209
2115,2691,5209
2115,2691,5209
2115,2686,5209
2115,2686,5215
2116,2688,5226
2118,2689,5230
2116,2687,5237
2116,2685,5230
2116,2687,5236
2117,2687,5236
2117,2689,5231
2116,2687,5231
2116,2687,5235
2115,2691,5235
2117,2689,5237
2116,2685,5232
2115,2692,5234
2115,2694,5233
2116,2693,5228
2117,2692,5234
2117,2692,5231
2115,2692,5231
2115,2692,5231
2114,2692,5231
2114,2693,5232
2114,2693,5232
2114,2693,5232
2114,2696,5229
2114,2696,5233
2116,2696,5233
2116,2696,5234
2117,2696,5234
2117,2698,5234
2118,2698,5233
2118,2698,5230
2119,2698,5230
2119,2699,5229
2121,2699,5229
2121,2701,5229
2121,2706,5229
2121,2706,5224
2120,2706,5224
2120,2707,5224
2121,2707,5224
2121,2707,5224
2122,2705,5223
2122,2705,5230
2121,2705,5230
2121,2709,5219
2120,2709,5219
2120,2706,5219
2121,2705,5220
2121,2705,5218
2122,2705,5218
2122,2704,5216
2121,2704,5216
2119,2710,5215
2115,2704,5233
2119,2710,5221
2117,2710,5221
2117,2703,5220
2114,2703,5220
2114,2699,5220
2111,2696,5224
2111,2696,5226
2110,2696,5226
2110,2697,5229
2108,2697,5229
2108,2696,5229
2107,2695,5230
2107,2697,5227
2115,2704,5226
2109,2697,5227
2109,2697,5227
2114,2699,5228
2114,2699,5229
2117,2699,5229
2117,2701,5229
2115,2701,5229
2115,2699,5229
2116,2700,5234
2116,2700,5230
2118,2700,5230
2118,2700,5235
2114,2700,5235
2114,2700,5235
2113,2699,5240
2113,2699,5240
2111,2699,5240
2111,2695,5243
2112,2693,5239
2108,2694,5226
2112,2693,5243
2117,2696,5239
2118,2696,5239
2118,2697,5239
2120,2699,5236
2119,2702,5234
2116,2693,5227
2117,2699,5236
2117,2699,5236
2119,2697,5220
2119,2697,5226
2116,2697,5226
2116,2699,5212
2115,2699,5212
2115,2698,5212
2117,2694,5213
2117,2694,5212
2119,2693,5213
2118,2693,5213
2118,2695,5213
2119,2697,5216
2119,2697,5222
2120,2697,5222
2120,2696,5218
2118,2696,5218
2118,2699,5218
2117,2699,5222
2117,2698,5222
2117,2698,5226
2119,2697,5232
2118,2694,5237
2117,2695,5227
2119,2697,5243
2115,2697,5243
2115,2697,5248
2114,2697,5248
2114,2696,5248
2114,2696,5249
2114,2698,5249
2114,2698,5257
2113,2698,5254
2115,2698,5254
2115,2701,5254
2115,2701,5252
2113,2700,5252
2118,2698,5252
2111,2700,5252
2111,2701,5252
2113,2701,5249
2113,2701,5249
2113,2701,5248
2114,2702,5249
2112,2702,5249
2115,2700,5246
2115,2697,5246
2115,2697,5252
2111,2699,5254
2112,2699,5254
2112,2700,5254
2114,2700,5251
2114,2700,5251
2114,2700,5252
2113,2702,5256
2111,2699,5251
2110,2695,5227
2113,2703,5256
2113,2703,5251
2113,2701,5249
2110,2702,5247
2113,2701,5246
2110,2703,5244
2113,2702,5247
2113,2705,5247
2111,2705,5246
2111,2704,5246
2113,2704,5248
2113,2704,5243
2111,2704,5243
2111,2706,5243
2111,2706,5243
2111,2707,5243
2111,2707,5243
2111,2703,5244
2105,2703,5244
2105,2699,5244
2101,2699,5244
2101,2701,5244
2100,2701,5247
2100,2695,5253
2102,2695,5253
2102,2695,5253
2108,2695,5260
2108,2694,5260
2110,2694,5263
2110,2700,5265
2108,2700,5265
2108,2700,5265
2106,2700,5266
2106,2700,5267
2113,2700,5267
2112,2700,5267
2112,2702,5267
2110,2702,5268
2110,2701,5268
2107,2701,5265
2107,2704,5265
2108,2706,5263
2106,2700,5263
2108,2703,5263
2108,2703,5259
2106,2703,5263
2108,2703,5263
2108,2705,5263
2107,2705,5268
2108,2702,5264
2106,2704,5266
2106,2702,5264
2106,2703,5264
2108,2703,5264
2108,2704,5264
2108,2704,5265
2108,2705,5265
2104,2705,5261
2104,2703,5261
2104,2703,5264
2104,2703,5264
2103,2703,5261
2103,2707,5261
2106,2707,5259
2106,2706,5259
2107,2706,5260
2107,2708,5260
2105,2708,5260
2105,2708,5260
2104,2708,5260
2104,2706,5260
2102,2706,5257
2102,2709,5257
2106,2709,5256
2106,2710,5256
2106,2710,5256
2106,2710,5256
2105,2710,5258
2105,2710,5258
2104,2710,5253
2104,2707,5253
2100,2707,5254
2100,2706,5254
2099,2706,5258
2099,2705,5258
2099,2705,5263
2099,2703,5263
2095,2703,5265
2095,2704,5265
2094,2704,5269
2094,2703,5273
2106,2704,5267
2090,2704,5265
2096,2704,5267
2090,2705,5265
2093,2705,5268
2096,2705,5264
2095,2705,5268
2096,2704,5264
2099,2704,5268
2099,2705,5268
2102,2705,5269
2098,2704,5272
2098,2704,5272
2101,2704,5276
2101,2707,5276
2103,2707,5277
2103,2709,5277
2097,2706,5277
2095,2702,5281
2091,2706,5276
2091,2702,5276
2090,2702,5283
2090,2703,5283
2092,2703,5278
2092,2702,5278
2096,2702,5278
2100,2705,5278
2100,2705,5278
2099,2705,5275
2099,2708,5275
2103,2708,5276
2103,2707,5276
2101,2707,5272
2101,2707,5272
2099,2707,5272
2099,2711,5272
2098,2711,5263
2098,2708,5263
2099,2708,5262
2097,2708,5258
2097,2696,5258
2102,2696,5258
2102,2694,5258
2100,2694,5270
2100,2697,5270
2096,2697,5274
2096,2697,5274
2095,2697,5286
2095,2700,5286
2097,2700,5288
2097,2701,5288
2094,2701,5288
2094,2704,5288
2097,2704,5292
2097,2704,5292
2098,2704,5291
2098,2709,5291
2099,2709,5288
2099,2710,5288
2095,2709,5289
2094,2710,5286
2096,2709,5284
2096,2709,5284
2099,2709,5285
2096,2710,5285
2096,2710,5284
2095,2710,5287
2095,2710,5284
2095,2712,5287
2092,2712,5287
2097,2713,5284
2097,2713,5284
2095,2713,5283
2095,2715,5283
2097,2715,5282
2096,2713,5282
2096,2713,5282
2094,2715,5278
2098,2713,5278
2098,2713,5278
2097,2717,5278
2097,2717,5278
2099,2716,5276
2096,2717,5276
2096,2717,5274
2095,2717,5274
2095,2717,5273
2096,2718,5272
2096,2716,5272
2096,2716,5273
2098,2716,5273
2098,2716,5274
2094,2715,5272
2094,2715,5272
2094,2715,5272
2091,2716,5272
2091,2716,5280
2096,2711,5280
2096,2711,5278
2086,2708,5278
2086,2708,5281
2085,2707,5286
2082,2705,5290
2084,2704,5290
2084,2704,5292
2085,2704,5292
2085,2704,5294
2090,2704,5294
2090,2708,5290
2090,2710,5290
2090,2710,5293
2091,2712,5293
2091,2712,5287
2088,2712,5287
2088,2712,5289
2091,2711,5289
2091,2711,5289
2088,2714,5289
2088,2714,5288
2089,2714,5288
2089,2713,5293
2093,2715,5293
2093,2715,5290
2090,2712,5290
2090,2712,5290
2091,2712,5290
2091,2712,5292
2089,2713,5292
2089,2713,5292
2088,2712,5292
2088,2712,5292
2088,2712,5292
2091,2716,5291
2088,2713,5291
2091,2714,5289
2089,2717,5285
2088,2717,5285
2088,2715,5284
2088,2715,5284
2088,2716,5283
2088,2717,5283
2087,2717,5283
2087,2714,5284
2087,2714,5284
2084,2717,5281
2088,2716,5280
2084,2717,5281
2084,2718,5280
2085,2718,5280
2085,2718,5278
2085,2718,5278
2085,2718,5279
2083,2718,5279
2081,2717,5280
2081,2713,5283
2080,2709,5287
2079,2709,5287
2079,2708,5292
2077,2708,5292
2077,2711,5295
2077,2711,5295
2077,2713,5293
2077,2713,5293
2077,2712,5289
2076,2712,5289
2076,2713,5285
2079,2713,5285
2077,2716,5284
2088,2714,5288
2080,2717,5284
2082,2715,5286
2085,2717,5284
2085,2719,5288
2085,2719,5288
2085,2716,5288
2083,2716,5288
2083,2717,5293
2080,2717,5293
2080,2714,5295
2084,2714,5295
2084,2717,5296
2084,2717,5296
2084,2718,5293
2082,2718,5293
2082,2717,5299
2079,2717,5297
2081,2716,5295
2079,2717,5297
2079,2717,5294
2079,2717,5294
2079,2715,5294
2076,2715,5294
2076,2712,5294
2074,2712,5294
2074,2710,5291
2078,2710,5291
2084,2713,5290
2081,2712,5290
2084,2713,5290
2084,2715,5286
2085,2715,5286
2085,2715,5285
2085,2715,5285
2085,2718,5286
2083,2718,5286
2083,2718,5282
2085,2717,5282
2085,2718,5284
2087,2718,5284
2087,2721,5282
2084,2721,5282
2087,2712,5290
2084,2720,5286
2087,2716,5286
2083,2720,5286
2083,2720,5285
2083,2715,5285
2083,2715,5286
2083,2711,5286
2082,2709,5289
2080,2709,5289
2080,2711,5289
2081,2707,5285
2082,2707,5286
2080,2707,5285
2080,2707,5289
2080,2709,5289
2080,2709,5291
2080,2707,5291
2081,2709,5292
2082,2712,5296
2080,2708,5250
2084,2710,5299
2082,2712,5301
2080,2710,5299
2080,2710,5304
2077,2715,5305
2081,2716,5304
2082,2716,5308
2080,2718,5251
2077,2715,5304
2077,2717,5304
2081,2717,5304
2083,2719,5303
2081,2716,5304
2083,2719,5302
2083,2718,5302
2078,2722,5301
2079,2722,5301
2079,2722,5299
2080,2723,5299
2080,2723,5298
2080,2726,5298
2081,2723,5294
2082,2723,5294
2082,2723,5295
2082,2721,5295
2082,2722,5291
2082,2722,5291
2082,2724,5292
2084,2724,5292
2084,2724,5296
2083,2726,5296
2087,2723,5291
2081,2726,5289
2081,2723,5291
2086,2724,5291
2082,2723,5291
2080,2723,5296
2082,2721,5300
2086,2724,5297
2086,2718,5297
2078,2716,5309
2077,2716,5309
2077,2716,5309
2074,2718,5309
2074,2718,5310
2074,2717,5310
2074,2717,5310
2072,2717,5310
2072,2717,5310
2073,2715,5310
2073,2715,5312
2076,2715,5309
2082,2715,5291
2077,2715,5309
2077,2715,5309
2079,2719,5312
2082,2720,5306
2081,2722,5306
2080,2722,5300
2079,2719,5303
2079,2724,5303
2081,2724,5305
2081,2722,5305
2085,2722,5305
2081,2725,5304
2081,2725,5306
2081,2722,5306
2082,2722,5303
2082,2723,5303
2081,2723,5303
2083,2725,5306
2083,2725,5304
2083,2725,5304
2081,2725,5302
2081,2725,5302
2079,2725,5302
2081,2726,5296
2081,2726,5297
2081,2727,5297
2080,2727,5297
2080,2728,5297
2082,2728,5297
2081,2727,5295
2081,2727,5293
2081,2728,5293
2079,2728,5294
2079,2728,5294
2082,2728,5294
2081,2727,5294
2081,2727,5293
2081,2731,5293
2080,2731,5292
2080,2728,5292
2080,2728,5292
2076,2729,5284
2076,2729,5284
2076,2732,5284
2078,2732,5284
2078,2727,5284
2075,2727,5284
2073,2726,5286
2073,2726,5286
2073,2724,5286
2075,2724,5285
2075,2722,5285
2072,2722,5285
2074,2724,5288
2074,2723,5290
2082,2720,5292
2074,2723,5290
2078,2723,5290
2081,2725,5294
2081,2725,5296
2081,2724,5296
2078,2724,5297
2084,2728,5297
2083,2726,5292
2084,2728,5301
2084,2728,5301
2080,2728,5302
2080,2729,5302
2081,2729,5302
2083,2728,5300
2081,2724,5302
2081,2722,5303
2083,2724,5300
2081,2724,5300
2082,2726,5305
2082,2726,5307
2082,2725,5307
2083,2725,5305
2083,2725,5305
2081,2725,5305
2084,2727,5301
2084,2727,5304
2084,2727,5304
2082,2727,5301
2082,2727,5301
2080,2727,5301
2076,2726,5299
2076,2726,5297
2076,2723,5297
2077,2723,5296
2077,2720,5296
2078,2720,5296
2085,2722,5293
2085,2722,5295
2085,2725,5295
2084,2725,5293
2084,2728,5293
2085,2728,5293
2085,2727,5291
2085,2727,5292
2087,2730,5290
2087,2729,5290
2090,2729,5290
2088,2729,5287
2088,2729,5292
2088,2732,5292
2089,2732,5288
2089,2729,5288
2087,2729,5288
2085,2728,5291
2085,2728,5298
2085,2725,5298
2087,2725,5304
2087,2725,5304
2088,2725,5304
2086,2724,5303
2086,2724,5304
2086,2726,5304
2088,2726,5304
2085,2726,5296
2087,2723,5302
2085,2726,5294
2085,2724,5294
2088,2723,5291
2086,2721,5290
2085,2722,5303
2088,2720,5285
2086,2721,5284
2088,2720,5285
2085,2718,5289
2088,2721,5284
2085,2718,5292
2085,2718,5292
2085,2718,5300
2085,2718,5300
2085,2718,5303
2086,2720,5303
2086,2720,5303
2088,2722,5305
2087,2725,5304
2084,2724,5303
2088,2722,5302
2086,2726,5302
2086,2729,5302
2090,2729,5302
2089,2725,5302
2088,2730,5299
2087,2725,5296
2086,2730,5298
2091,2730,5296
2086,2730,5299
2088,2732,5299
2088,2732,5294
2089,2732,5293
2088,2732,5294
2089,2732,5294
2089,2732,5290
2090,2735,5290
2090,2735,5289
2091,2735,5289
2091,2735,5288
2088,2735,5288
2088,2735,5289
2089,2735,5289
2089,2735,5291
2086,2731,5291
2086,2731,5298
2086,2730,5298
2086,2730,5303
2083,2727,5303
2083,2727,5305
2087,2729,5305
2087,2729,5310
2082,2728,5310
2082,2728,5307
2079,2727,5307
2079,2727,5314
2078,2725,5310
2079,2724,5311
2082,2725,5310
2082,2725,5313
2086,2729,5313
2086,2729,5309
2086,2730,5309
2088,2731,5309
2088,2731,5308
2087,2733,5308
2085,2732,5305
2079,2724,5309
2088,2732,5305
2088,2731,5305
2087,2729,5307
2087,2729,5308
2088,2729,5308
2088,2734,5310
2089,2734,5310
2089,2734,5310
2087,2731,5308
2087,2731,5310
2090,2731,5310
2090,2733,5310
2090,2733,5308
2085,2735,5308
2086,2734,5305
2086,2734,5306
2087,2734,5306
2087,2734,5306
2087,2734,5303
2086,2736,5303
2086,2736,5303
2086,2736,5298
2088,2736,5298
2088,2737,5300
2089,2735,5298
2084,2736,5303
2088,2737,5297
2086,2738,5297
2086,2738,5295
2085,2738,5295
2085,2738,5288
2089,2739,5298
2085,2738,5289
2082,2738,5289
2082,2739,5289
2082,2739,5284
2083,2739,5284
2084,2737,5281
2089,2737,5298
2084,2737,5277
2083,2737,5277
2083,2737,5277
2083,2737,5279
2080,2737,5279
2086,2734,5283
2086,2734,5283
2086,2734,5287
2086,2731,5295
2082,2731,5302
2086,2731,5303
2086,2731,5303
2088,2731,5303
2088,2730,5303
2088,2730,5309
2090,2730,5309
2091,2735,5312
2091,2734,5312
2091,2734,5311
2088,2733,5311
2088,2733,5310
2090,2733,5310
2088,2732,5312
2088,2733,5312
2088,2733,5310
2092,2734,5310
2088,2733,5312
2090,2731,5311
2089,2732,5311
2080,2722,5311
2085,2733,5312
2085,2734,5312
2087,2734,5313
2087,2733,5313
2087,2733,5313
2088,2731,5313
2088,2731,5311
2087,2731,5311
2086,2733,5314
2086,2732,5314
2086,2732,5311
2080,2731,5311
2080,2731,5310
2081,2731,5310
2078,2726,5308
2078,2731,5308
2078,2731,5305
2083,2729,5305
2083,2729,5304
2087,2729,5304
2090,2731,5304
2090,2733,5304
2090,2733,5305
2088,2735,5305
2088,2735,5299
2090,2735,5299
2090,2731,5311
2090,2738,5299
2089,2740,5299
2089,2740,5295
2093,2740,5295
2092,2738,5295
2092,2737,5295
2092,2737,5297
2091,2738,5297
2091,2738,5293
2089,2738,5293
2092,2741,5292
2092,2740,5292
2092,2740,5294
2090,2738,5294
2090,2738,5299
2093,2738,5299
2090,2737,5303
2090,2732,5303
2090,2732,5309
2088,2728,5309
2088,2728,5312
2091,2728,5312
2090,2729,5307
2090,2732,5307
2090,2732,5308
2091,2731,5308
2091,2731,5303
2094,2731,5303
2088,2732,5298
2088,2731,5298
2088,2731,5298
2088,2726,5298
2088,2726,5291
2089,2726,5291
2090,2727,5296
2090,2724,5296
2089,2725,5292
2091,2727,5296
2089,2732,5302
2089,2726,5292
2089,2726,5304
2088,2725,5304
2088,2725,5308
2091,2725,5308
2093,2726,5311
2093,2727,5311
2093,2727,5314
2086,2732,5314
2086,2732,5315
2091,2732,5315
2089,2732,5309
2089,2730,5309
2092,2730,5309
2092,2732,5309
2088,2732,5307
2088,2732,5307
2091,2732,5306
2091,2732,5306
2091,2732,5308
2094,2735,5308
2094,2735,5304
2089,2735,5304
2093,2736,5305
2093,2735,5305
2092,2735,5305
2092,2734,5305
2092,2734,5303
2094,2737,5301
2094,2739,5301
2093,2739,5299
2093,2737,5299
2093,2737,5294
2095,2738,5298
2095,2740,5298
2092,2740,5300
2092,2740,5296
2088,2740,5296
2084,2738,5299
2084,2733,5299
2086,2731,5306
2086,2731,5310
2080,2731,5310
2080,2728,5315
2080,2724,5315
2084,2724,5318
2084,2727,5318
2087,2727,5319
2088,2729,5317
2088,2730,5317
2090,2730,5317
2090,2733,5317
2087,2733,5318
2087,2730,5318
2093,2730,5315
2092,2734,5315
2091,2735,5296
2093,2735,5314
2093,2735,5312
2093,2736,5314
2092,2736,5314
2092,2736,5314
2090,2736,5315
2090,2737,5315
2091,2737,5313
2091,2733,5313
2086,2728,5316
2088,2737,5313
2089,2732,5313
2086,2734,5316
2090,2734,5313
2090,2739,5313
2090,2739,5313
2090,2738,5313
2087,2739,5314
2087,2737,5305
2085,2739,5306
2085,2739,5306
2084,2739,5303
2084,2738,5303
2084,2738,5299
2085,2739,5299
2080,2739,5291
2080,2739,5291
2082,2739,5288
2082,2736,5288
2084,2736,5287
2084,2740,5287
2083,2740,5288
2083,2740,5288
2088,2740,5284
2088,2740,5284
2089,2740,5286
2089,2740,5286
2087,2740,5282
2087,2738,5282
2092,2738,5290
2092,2739,5290
2092,2739,5296
2092,2738,5296
2089,2738,5300
2089,2730,5300
2092,2730,5309
2092,2733,5309
2089,2733,5313
2089,2736,5313
2092,2736,5317
2092,2734,5317
2093,2734,5318
2093,2734,5318
2088,2734,5316
2088,2735,5316
2089,2735,5317
2089,2736,5317
2090,2736,5318
2090,2736,5318
2092,2736,5315
2092,2733,5315
2091,2733,5316
2091,2736,5316
2089,2736,5315
2089,2739,5315
2091,2739,5314
2091,2735,5314
2091,2735,5314
2091,2736,5314
2094,2736,5317
2094,2736,5317
2088,2736,5318
2088,2736,5318
2089,2736,5316
2089,2736,5316
2085,2736,5316
2085,2734,5316
2084,2734,5316
2084,2735,5316
2082,2735,5318
2082,2730,5318
2080,2730,5315
2080,2732,5315
2085,2732,5312
2085,2733,5312
2087,2732,5312
2089,2737,5308
2087,2736,5312
2091,2736,5308
2091,2737,5308
2092,2737,5308
2092,2740,5305
2092,2737,5305
2093,2737,5305
2093,2741,5305
2094,2741,5304
2094,2743,5304
2093,2743,5301
2093,2740,5301
2092,2740,5301
2092,2740,5303
2092,2742,5303
2093,2742,5300
2095,2741,5301
2095,2741,5301
2095,2741,5295
2095,2742,5295
2094,2742,5298
2094,2740,5298
2091,2740,5299
2092,2738,5299
2092,2738,5303
2092,2739,5303
2092,2739,5307
2092,2735,5307
2092,2735,5314
2093,2734,5314
2093,2734,5319
2093,2735,5319
2091,2735,5315
2091,2737,5315
2091,2737,5312
2092,2733,5312
2092,2733,5309
2092,2733,5309
2089,2733,5307
2089,2731,5307
2093,2731,5304
2090,2733,5304
2090,2733,5301
2091,2731,5301
2091,2731,5297
2091,2730,5297
2094,2730,5304
2093,2728,5304
2093,2728,5297
2088,2729,5297
2088,2729,5301
2088,2728,5301
2091,2728,5308
2088,2729,5308
2088,2729,5310
2089,2727,5310
2089,2727,5313
2093,2728,5315
2089,2730,5315
2089,2730,5319
2088,2733,5319
2088,2733,5314
2089,2732,5317
2092,2733,5317
2092,2733,5320
2089,2736,5320
2089,2736,5318
2092,2734,5313
2090,2734,5313
2090,2734,5313
2092,2738,5313
2092,2738,5316
2090,2739,5309
2090,2737,5309
2090,2737,5311
2089,2738,5311
2089,2738,5310
2087,2740,5305
2092,2738,5305
2092,2738,5307
2090,2739,5307
2090,2739,5309
2087,2740,5303
2083,2736,5303
2083,2736,5304
2081,2733,5304
2081,2733,5305
2085,2731,5305
2085,2731,5303
2085,2727,5303
2086,2728,5312
2089,2729,5320
2089,2732,5323
2090,2731,5312
2090,2731,5322
2090,2733,5322
2090,2733,5323
2092,2733,5323
2092,2733,5324
2091,2733,5324
2091,2736,5325
2089,2736,5325
2089,2736,5326
2089,2736,5324
2086,2736,5324
2086,2736,5321
2087,2736,5321
2087,2736,5320
2085,2736,5320
2090,2735,5322
2089,2729,5320
2089,2735,5322
2089,2738,5319
2089,2736,5321
2086,2736,5321
2086,2737,5319
2086,2737,5319
2086,2737,5320
2086,2737,5320
2086,2737,5317
2085,2735,5314
2080,2735,5314
2080,2736,5309
2089,2735,5306
2082,2736,5309
2082,2736,5299
2082,2736,5299
2082,2739,5299
2085,2739,5299
2085,2739,5297
2088,2739,5297
2088,2739,5298
2088,2739,5298
2088,2739,5302
2090,2738,5299
2089,2738,5299
2089,2739,5302
2091,2739,5302
2092,2741,5305
2089,2740,5305
2090,2741,5306
2090,2734,5322
2089,2734,5322
2089,2737,5327
2089,2737,5327
2089,2734,5329
2086,2734,5329
2086,2738,5329
2084,2736,5322
2087,2736,5322
2087,2736,5324
2082,2736,5324
2082,2734,5326
2081,2734,5326
2081,2733,5330
2078,2733,5330
2084,2730,5327
2086,2731,5329
2089,2731,5326
2086,2735,5323
2089,2730,5327
2089,2736,5321
2092,2736,5321
2092,2737,5322
2090,2737,5322
2090,2740,5322
2091,2740,5322
2091,2739,5320
2090,2739,5317
2091,2743,5318
2089,2739,5317
2089,2741,5320
2089,2741,5320
2089,2742,5315
2091,2742,5315
2091,2742,5314
2091,2742,5314
2090,2742,5314
2090,2740,5315
2090,2741,5310
2090,2742,5308
2086,2741,5310
2089,2740,5315
2089,2740,5314
2089,2737,5321
2089,2736,5321
2088,2736,5321
2088,2735,5326
2086,2735,5326
2086,2735,5331
2090,2735,5328
2090,2733,5328
2086,2733,5328
2086,2734,5320
2088,2734,5320
2088,2734,5320
2088,2735,5317
2088,2736,5317
2086,2736,5317
2086,2731,5313
2086,2731,5313
2086,2731,5311
2087,2732,5311
2087,2726,5311
2089,2726,5311
2089,2730,5308
2087,2727,5310
2087,2741,5315
2087,2729,5310
2091,2729,5310
2091,2730,5321
2088,2730,5321
2088,2730,5327
2087,2730,5331
2087,2730,5331
2086,2730,5331
2086,2733,5329
2087,2733,5329
2087,2736,5331
2084,2736,5327
2084,2736,5327
2083,2736,5327
2083,2739,5329
2087,2739,5329
2087,2736,5325
2086,2736,5323
2086,2734,5323
2084,2734,5323
2084,2737,5320
2086,2737,5320
2086,2739,5322
2085,2739,5322
2085,2740,5319
2085,2740,5319
2085,2736,5321
2088,2736,5321
2088,2741,5317
2087,2741,5317
2084,2742,5316
2087,2742,5318
2083,2742,5316
2083,2742,5315
2080,2744,5315
2080,2739,5315
2087,2737,5318
2078,2739,5315
2078,2739,5314
2078,2735,5314
2078,2731,5318
2080,2731,5318
2080,2734,5324
2083,2734,5324
2083,2734,5328
2086,2729,5333
2086,2733,5333
2084,2733,5333
2084,2733,5338
2084,2733,5338
2084,2733,5338
2084,2736,5338
2084,2735,5339
2083,2735,5339
2081,2737,5337
2081,2735,5339
2090,2742,5337
2081,2736,5337
2082,2736,5337
2082,2738,5337
2079,2738,5337
2079,2738,5340
2080,2741,5340
2080,2741,5335
2080,2739,5335
2080,2741,5336
2079,2741,5336
2079,2741,5338
2077,2738,5338
2077,2738,5337
2077,2740,5337
2077,2738,5334
2076,2738,5334
2076,2738,5333
2073,2737,5333
2073,2737,5330
2073,2736,5330
2071,2740,5329
2070,2740,5329
2070,2740,5326
2073,2738,5326
2072,2741,5322
2081,2742,5317
2074,2741,5322
2074,2741,5318
2074,2739,5318
2074,2739,5315
2074,2745,5315
2076,2741,5317
2079,2741,5317
2079,2741,5318
2079,2741,5318
2079,2741,5321
2079,2743,5321
2082,2743,5320
2081,2743,5320
2081,2743,5324
2081,2742,5323
2081,2742,5321
2090,2745,5337
2084,2742,5323
2084,2742,5323
2081,2746,5323
2081,2746,5321
2081,2745,5321
2085,2741,5321
2086,2741,5321
2086,2741,5326
2077,2742,5326
2077,2742,5331
2077,2740,5331
2077,2739,5339
2080,2739,5339
2080,2739,5340
2083,2739,5340
2083,2739,5343
2083,2739,5343
2081,2740,5346
2079,2740,5346
2079,2740,5347
2079,2740,5347
2079,2740,5342
2079,2739,5342
2079,2740,5347
2079,2740,5340
2078,2745,5337
2079,2740,5340
2079,2740,5340
2076,2743,5342
2075,2743,5342
2075,2743,5342
2076,2741,5342
2076,2741,5341
2076,2739,5341
2071,2736,5344
2070,2736,5344
2070,2736,5344
2069,2735,5344
2074,2735,5344
2079,2734,5345
2074,2739,5344
2078,2739,5346
2079,2740,5340
2078,2743,5340
2078,2739,5346
2078,2743,5345
2078,2744,5345
2076,2746,5337
2078,2748,5336
2078,2748,5326
2078,2748,5326
2083,2748,5326
2083,2748,5325
2079,2748,5325
2079,2748,5324
2079,2747,5324
2077,2745,5328
2077,2745,5328
2077,2745,5333
2078,2742,5333
2078,2742,5336
2078,2743,5336
2078,2741,5340
2078,2741,5340
2078,2741,5337
2076,2741,5337
2076,2741,5337
2076,2741,5337
2076,2740,5333
2079,2740,5333
2079,2740,5334
2074,2739,5334
2074,2739,5330
2074,2735,5330
2077,2735,5327
2076,2735,5327
2076,2735,5327
2076,2735,5327
2076,2735,5332
2076,2735,5332
2078,2736,5332
2071,2736,5332
2071,2736,5339
2076,2736,5339
2076,2736,5344
2074,2736,5344
2074,2736,5347
2073,2738,5347
2073,2738,5347
2072,2739,5347
2072,2739,5346
2073,2743,5346
2073,2743,5349
2074,2742,5349
2074,2742,5344
2073,2745,5344
2075,2743,5345
2077,2744,5343
2071,2746,5345
2071,2746,5344
2075,2747,5344
2075,2747,5339
2074,2744,5339
2074,2744,5341
2072,2747,5340
2073,2748,5343
2072,2747,5337
2073,2749,5337
2073,2749,5337
2072,2749,5338
2069,2750,5343
2072,2749,5337
2068,2749,5337
2068,2749,5336
2066,2744,5332
2067,2743,5343
2066,2744,5336
2072,2744,5336
2072,2745,5334
2073,2744,5334
2073,2744,5339
2075,2744,5339
2075,2744,5344
2074,2744,5344
2074,2744,5347
2069,2743,5347
2069,2743,5349
2072,2745,5349
2072,2745,5350
2070,2746,5350
2070,2746,5352
2071,2748,5352
2071,2748,5354
2071,2747,5354
2071,2747,5353
2071,2749,5350
2072,2749,5350
2072,2749,5350
2070,2750,5350
2070,2750,5350
2073,2749,5350
2068,2750,5348
2068,2749,5347
2067,2749,5345
2080,2745,5345
2062,2745,5348
2064,2747,5347
2062,2745,5341
2062,2745,5341
2062,2749,5337
2061,2752,5337
2061,2752,5337
2061,2748,5337
2061,2748,5332
2062,2748,5332
2062,2752,5332
2064,2751,5332
2064,2751,5332
2066,2752,5332
2066,2752,5330
2068,2752,5330
2072,2749,5331
2072,2749,5331
2072,2749,5335
2071,2753,5335
2071,2753,5335
2071,2753,5335
2071,2752,5334
2071,2752,5334
2071,2752,5336
2072,2754,5336
2072,2754,5336
2073,2754,5336
2075,2753,5334
2075,2756,5334
2075,2756,5335
2071,2753,5335
2071,2753,5333
2069,2753,5333
2071,2755,5333
2071,2752,5333
2071,2752,5333
2071,2751,5333
2071,2751,5337
2071,2751,5337
2071,2748,5347
2071,2745,5347
2071,2745,5352
2070,2743,5352
2070,2743,5353
2071,2743,5353
2069,2747,5356
2069,2747,5356
2069,2747,5358
2068,2749,5358
2068,2749,5356
2070,2749,5356
2067,2747,5356
2067,2749,5356
2067,2749,5353
2067,2747,5353
2066,2752,5349
2062,2747,5352
2066,2753,5349
2066,2753,5349
2065,2748,5349
2065,2748,5351
2062,2748,5351
2058,2745,5354
2058,2743,5354
2058,2743,5352
2064,2743,5355
2064,2745,5355
2069,2749,5345
2064,2744,5355
2064,2744,5351
2067,2749,5351
2067,2748,5352
2068,2745,5351
2067,2750,5352
2067,2750,5351
2067,2751,5351
2067,2751,5348
2068,2751,5348
2068,2753,5349
2068,2752,5349
2068,2752,5347
2070,2753,5343
2069,2752,5341
2065,2749,5345
2070,2753,5343
2070,2753,5343
2068,2752,5343
2068,2752,5343
2066,2752,5343
2067,2751,5339
2067,2752,5339
2067,2752,5339
2068,2754,5339
2068,2754,5334
2067,2754,5334
2069,2755,5336
2069,2756,5336
2069,2756,5336
2068,2754,5336
2066,2756,5334
2070,2752,5335
2066,2752,5334
2066,2752,5337
2069,2750,5337
2069,2750,5336
2067,2750,5336
2067,2746,5338
2067,2746,5338
2067,2746,5339
2067,2744,5339
2067,2745,5338
2067,2749,5345
2067,2742,5339
2067,2741,5338
2068,2739,5334
2066,2741,5337
2068,2741,5334
2068,2741,5340
2069,2743,5340
2069,2743,5342
2065,2743,5342
2067,2744,5343
2067,2741,5343
2067,2741,5347
2064,2744,5347
2067,2744,5347
2067,2745,5347
2066,2745,5352
2066,2746,5352
2066,2746,5355
2065,2745,5355
2066,2745,5351
2066,2747,5351
2069,2747,5352
2069,2749,5352
2069,2749,5350
2064,2748,5350
2065,2748,5350
2065,2750,5350
2067,2750,5348
2065,2751,5348
2067,2750,5346
2065,2750,5346
2065,2751,5345
2065,2752,5345
2065,2752,5344
2065,2752,5344
2065,2752,5342
2063,2751,5342
2065,2752,5342
2060,2752,5340
2060,2752,5340
2061,2747,5335
2059,2747,5338
2057,2745,5335
2060,2747,5336
2064,2747,5331
2065,2747,5332
2057,2748,5335
2064,2747,5335
2066,2747,5335
2063,2750,5334
2063,2748,5334
2064,2745,5340
2066,2745,5346
2066,2743,5346
2066,2743,5349
2066,2747,5349
2066,2747,5350
2065,2747,5350
2065,2744,5350
2064,2744,5351
2063,2747,5355
2063,2748,5355
2063,2748,5352
2067,2748,5352
2067,2748,5352
2060,2748,5350
2063,2748,5352
2063,2747,5352
2063,2747,5349
2063,2747,5349
2063,2751,5349
2063,2751,5349
2060,2747,5346
2060,2749,5346
2057,2749,5344
2057,2745,5344
2058,2745,5345
2058,2748,5345
2057,2748,5338
2057,2747,5338
2055,2747,5337
2055,2747,5337
2057,2747,5338
2057,2747,5338
2056,2747,5338
2056,2748,5338
2060,2748,5331
2060,2748,5331
2060,2748,5331
2060,2748,5331
2061,2748,5333
2061,2748,5333
2065,2748,5333
2065,2748,5333
2065,2748,5337
2065,2748,5337
2068,2748,5336
2068,2747,5336
2067,2747,5337
2067,2750,5337
2068,2750,5337
2068,2749,5337
2072,2749,5335
2072,2748,5335
2067,2748,5338
2067,2749,5338
2070,2749,5334
2070,2750,5334
2068,2750,5334
2068,2751,5334
2067,2751,5332
2067,2750,5332
2067,2750,5334
2067,2747,5334
2067,2747,5331
2067,2746,5331
2066,2746,5337
2066,2747,5337
2066,2747,5341
2064,2741,5346
2064,2744,5346
2065,2744,5350
2065,2743,5350
2065,2743,5352
2065,2741,5352
2066,2741,5354
2066,2744,5354
2064,2744,5355
2064,2742,5355
2064,2742,5351
2063,2741,5353
2063,2742,5353
2058,2742,5350
2058,2741,5350
2058,2741,5349
2058,2740,5349
2058,2740,5348
2058,2738,5348
2058,2738,5346
2058,2738,5346
2065,2738,5347
2065,2737,5350
2065,2739,5351
2065,2738,5350
2067,2738,5350
2064,2740,5348
2064,2741,5348
2066,2741,5348
2066,2741,5349
2066,2742,5349
2066,2742,5348
2066,2743,5346
2066,2744,5346
2066,2744,5346
2066,2744,5343
2066,2744,5343
2066,2744,5344
2066,2744,5345
2066,2743,5345
2066,2748,5340
2068,2748,5334
2068,2746,5334
2066,2746,5331
2066,2745,5331
2065,2745,5333
2069,2741,5333
2069,2741,5332
2069,2740,5332
2066,2740,5327
2065,2735,5330
2063,2735,5330
2063,2735,5332
2065,2730,5332
2065,2730,5336
2062,2730,5335
2062,2728,5335
2063,2728,5336
2062,2725,5336
2062,2725,5334
2064,2726,5334
2064,2726,5337
2064,2727,5337
2063,2727,5341
2063,2730,5341
2064,2730,5346
2064,2729,5349
2063,2728,5349
2063,2728,5351
2063,2729,5351
2063,2729,5348
2062,2730,5348
2062,2730,5352
2062,2732,5352
2067,2732,5353
2067,2727,5353
2065,2727,5351
2065,2729,5354
2063,2732,5354
2063,2732,5355
2064,2730,5355
2064,2730,5354
2065,2729,5354
2065,2729,5351
2060,2731,5350
2063,2733,5350
2063,2733,5354
2063,2734,5354
2063,2734,5344
2063,2734,5346
2061,2733,5346
2061,2733,5345
2062,2733,5345
2062,2733,5345
2057,2733,5345
2057,2734,5345
2058,2736,5343
2057,2730,5339
2058,2727,5338
2062,2727,5338
2062,2728,5338
2066,2731,5336
2065,2731,5336
2065,2733,5334
2062,2733,5334
2062,2733,5337
2062,2729,5337
2064,2729,5337
2064,2729,5341
2060,2727,5341
2060,2727,5348
2062,2725,5348
2062,2725,5353
2058,2725,5353
2061,2725,5353
2058,2728,5357
2066,2728,5354
2058,2728,5353
2058,2728,5352
2060,2728,5352
2060,2723,5351
2059,2727,5351
2059,2727,5352
2058,2727,5352
2058,2727,5348
2056,2726,5348
2056,2726,5345
2055,2728,5345
2055,2728,5343
2053,2728,5343
2053,2724,5341
2055,2724,5341
2055,2727,5340
2053,2726,5340
2053,2726,5336
2054,2726,5336
2054,2725,5335
2054,2725,5335
2054,2727,5336
2058,2723,5336
2058,2723,5336
2057,2723,5336
2057,2725,5336
2058,2725,5336
2058,2725,5339
2060,2729,5339
2060,2729,5339
2062,2729,5339
2062,2724,5337
2062,2724,5337
2062,2725,5340
2065,2725,5340
2065,2727,5339
2065,2727,5339
2065,2729,5339
2066,2729,5339
2066,2727,5335
2065,2727,5335
2065,2724,5332
2065,2724,5332
2065,2726,5333
2063,2726,5333
2063,2728,5333
2065,2728,5333
2065,2727,5331
2058,2729,5328
2063,2727,5331
2063,2726,5330
2063,2726,5330
2063,2727,5330
2064,2727,5330
2064,2727,5328
2065,2727,5328
2065,2725,5332
2066,2725,5332
2066,2719,5335
2063,2719,5335
2063,2723,5342
2061,2723,5342
2061,2719,5346
2059,2719,5346
2059,2715,5354
2061,2715,5354
2061,2718,5349
2063,2716,5351
2059,2729,5328
2063,2718,5352
2057,2718,5352
2057,2719,5352
2055,2719,5352
2055,2715,5349
2056,2715,5349
2056,2714,5349
2055,2714,5349
2055,2710,5348
2058,2710,5348
2058,2713,5348
2062,2713,5348
2062,2715,5346
2062,2715,5346
2062,2716,5348
2058,2716,5348
2058,2716,5351
2062,2716,5351
2062,2714,5347
2064,2714,5347
2064,2716,5349
2064,2716,5349
2064,2718,5347
2063,2718,5347
2063,2716,5345
2063,2716,5345
2063,2717,5346
2064,2717,5346
2064,2716,5346
2063,2716,5346
2063,2720,5344
2066,2720,5344
2066,2716,5339
2062,2716,5339
2062,2717,5342
2063,2718,5338
2063,2718,5339
2066,2718,5338
2066,2720,5336
2064,2720,5336
2064,2720,5333
2064,2718,5333
2063,2720,5330
2068,2720,5330
2068,2720,5332
2064,2719,5332
2064,2719,5330
2064,2720,5330
2062,2720,5330
2066,2720,5330
2066,2716,5325
2062,2716,5325
2062,2716,5327
2062,2714,5327
2064,2710,5326
2062,2710,5326
2062,2706,5328
2062,2706,5328
2062,2706,5328
2062,2704,5328
2063,2701,5333
2064,2701,5333
2064,2702,5330
2059,2702,5330
2059,2702,5334
2059,2703,5334
2064,2703,5341
2061,2703,5341
2061,2703,5342
2060,2703,5342
2060,2704,5346
2061,2704,5346
2061,2707,5344
2061,2707,5344
2061,2708,5346
2061,2708,5346
2060,2712,5346
2063,2710,5343
2059,2712,5346
2059,2712,5348
2058,2709,5348
2059,2712,5347
2063,2710,5346
2060,2712,5347
2060,2712,5350
2058,2709,5350
2058,2710,5347
2061,2710,5347
2061,2709,5346
2059,2709,5346
2056,2713,5345
2058,2710,5340
2066,2713,5341
2057,2713,5345
2057,2713,5341
2056,2716,5341
2056,2716,5339
2056,2713,5339
2054,2712,5338
2050,2712,5338
2050,2712,5337
2053,2708,5337
2053,2708,5337
2058,2712,5333
2055,2708,5337
2055,2708,5330
2058,2711,5330
2058,2711,5329
2058,2713,5329
2060,2715,5330
2060,2715,5330
2060,2715,5328
2061,2712,5328
2062,2713,5331
2066,2712,5341
2058,2712,5328
2059,2712,5333
2059,2712,5340
2059,2710,5343
2062,2706,5331
2057,2710,5343
2057,2710,5348
2055,2710,5348
