2761,2454,2070
2762,2453,2068
2761,2454,2070
2761,2455,2070
2758,2455,2070
2758,2455,2068
2760,2457,2068
2760,2457,2071
2761,2459,2071
2761,2459,2070
2756,2459,2070
2756,2459,2067
2757,2461,2067
2757,2461,2069
2763,2463,2069
2763,2463,2068
2761,2460,2068
2761,2460,2070
2761,2459,2070
2761,2459,2065
2763,2462,2065
2763,2462,2071
2760,2463,2071
2760,2463,2071
2759,2463,2071
2759,2463,2070
2760,2460,2070
2760,2460,2071
2759,2463,2071
2759,2463,2070
2758,2465,2070
2758,2465,2069
2763,2464,2069
2763,2464,2074
2764,2465,2074
2764,2465,2075
2759,2460,2075
2759,2460,2073
2761,2461,2073
2761,2461,2066
2761,2456,2066
2760,2456,2066
2760,2456,2068
2760,2449,2068
2760,2449,2066
2752,2446,2066
2752,2446,2069
2751,2444,2069
2751,2444,2069
2753,2441,2069
2753,2441,2071
2753,2442,2071
2753,2442,2073
2753,2446,2073
2749,2446,2073
2749,2446,2075
2750,2442,2075
2750,2442,2071
2745,2441,2071
2745,2441,2072
2744,2438,2072
2744,2438,2067
2742,2443,2067
2742,2443,2062
2747,2440,2062
2747,2440,2058
2737,2438,2058
2737,2438,2052
2749,2431,2052
2749,2431,2048
2753,2432,2048
2753,2432,2050
2754,2425,2050
2754,2425,2051
2758,2436,2051
2758,2436,2050
2750,2433,2050
2750,2433,2056
2751,2441,2056
2751,2441,2060
2757,2450,2060
2757,2450,2063
2746,2465,2063
2746,2465,2066
2757,2465,2066
2757,2465,2063
2751,2468,2063
2751,2468,2067
2756,2464,2067
2756,2464,2069
2761,2465,2069
2761,2465,2077
2759,2462,2077
2759,2462,2072
2760,2462,2072
2760,2462,2074
2760,2464,2074
2760,2464,2074
2764,2463,2074
2764,2463,2078
2766,2466,2078
2766,2466,2075
2767,2466,2075
2767,2466,2069
2765,2468,2069
2765,2468,2080
2765,2468,2080
2765,2467,2080
2765,2467,2075
2766,2465,2075
2766,2465,2074
2767,2472,2074
2767,2472,2077
2766,2463,2077
2766,2463,2074
2763,2463,2074
2763,2463,2076
2763,2454,2076
2763,2454,2076
2766,2450,2076
2766,2450,2074
2762,2456,2074
2762,2456,2077
2760,2454,2077
2760,2454,2079
2762,2457,2079
2762,2457,2073
2768,2457,2073
2768,2457,2079
2762,2459,2079
2762,2459,2075
2773,2456,2075
2773,2456,2072
2774,2461,2072
2774,2461,2075
2770,2460,2075
2770,2460,2074
2767,2463,2074
2767,2463,2072
2766,2459,2072
2766,2459,2073
2766,2460,2073
2766,2460,2073
2763,2464,2073
2763,2464,2079
2762,2463,2079
2762,2463,2075
2764,2460,2075
2764,2460,2075
2762,2465,2075
2762,2465,2076
2763,2465,2076
2763,2459,2076
2763,2459,2078
2763,2458,2078
2763,2458,2078
2766,2461,2078
2766,2461,2075
2763,2465,2075
2763,2465,2078
2760,2465,2078
2760,2465,2076
2764,2465,2076
2764,2465,2079
2768,2469,2079
2768,2469,2080
2764,2469,2080
2764,2472,2080
2764,2472,2077
2761,2472,2077
2761,2471,2077
2761,2471,2078
2762,2468,2078
2762,2468,2080
2766,2469,2080
2766,2469,2080
2765,2469,2080
2765,2469,2075
2763,2466,2075
2763,2466,2077
2766,2467,2077
2766,2467,2077
2764,2469,2077
2764,2469,2077
2762,2466,2077
2762,2466,2078
2763,2466,2078
2763,2466,2080
2763,2458,2080
2763,2458,2081
2768,2460,2081
2768,2460,2078
2768,2452,2078
2768,2452,2077
2764,2449,2077
2764,2449,2083
2764,2448,2083
2764,2448,2080
2765,2448,2080
2765,2455,2080
2765,2455,2073
2767,2454,2073
2767,2454,2082
2766,2454,2082
2766,2456,2082
2766,2456,2078
2761,2456,2078
2761,2456,2078
2761,2456,2080
2763,2456,2080
2763,2457,2080
2763,2457,2079
2764,2457,2079
2764,2458,2079
2764,2458,2073
2759,2458,2073
2759,2458,2073
2759,2458,2064
2762,2455,2064
2762,2455,2065
2760,2453,2065
2760,2453,2066
2762,2452,2066
2762,2452,2068
2759,2452,2068
2759,2452,2072
2765,2452,2072
2765,2454,2072
2765,2454,2075
2761,2457,2075
2761,2457,2076
2758,2459,2076
2758,2459,2076
2759,2463,2076
2759,2463,2080
2761,2463,2080
2761,2463,2080
2761,2463,2083
2763,2463,2083
2763,2469,2083
2763,2469,2079
2757,2469,2079
2757,2463,2079
2757,2463,2079
2758,2463,2079
2758,2471,2079
2758,2471,2082
2759,2471,2082
2759,2466,2082
2759,2466,2079
2763,2466,2079
2763,2475,2079
2763,2475,2076
2762,2468,2076
2762,2468,2084
2758,2468,2084
2758,2469,2084
2758,2469,2075
2762,2469,2075
2762,2471,2075
2762,2471,2080
2761,2471,2080
2761,2467,2080
2761,2467,2081
2762,2467,2081
2762,2465,2081
2762,2465,2081
2764,2465,2081
2764,2467,2081
2764,2467,2081
2761,2467,2081
2761,2468,2081
2761,2468,2083
2756,2468,2083
2756,2467,2083
2756,2467,2087
2761,2467,2087
2761,2463,2087
2761,2463,2084
2758,2463,2084
2758,2456,2084
2758,2456,2084
2769,2456,2084
2769,2453,2084
2769,2453,2076
2762,2453,2076
2762,2451,2076
2762,2451,2083
2766,2451,2083
2766,2456,2083
2766,2456,2085
2760,2456,2085
2760,2452,2085
2760,2452,2080
2764,2452,2080
2764,2456,2080
2764,2456,2087
2762,2456,2087
2762,2459,2087
2762,2459,2086
2762,2459,2086
2762,2459,2086
2762,2459,2084
2763,2459,2084
2763,2459,2084
2763,2459,2084
2762,2459,2084
2762,2459,2084
2762,2459,2089
2760,2459,2089
2760,2464,2089
2760,2464,2084
2760,2464,2084
2760,2463,2084
2760,2463,2086
2757,2463,2086
2757,2464,2086
2757,2464,2081
2760,2464,2081
2760,2463,2081
2760,2463,2080
2757,2463,2080
2757,2462,2080
2757,2462,2083
2765,2462,2083
2765,2462,2083
2765,2462,2088
2759,2462,2088
2759,2464,2088
2759,2464,2080
2756,2464,2080
2756,2466,2080
2756,2466,2083
2757,2466,2083
2757,2466,2083
2757,2466,2087
2757,2466,2087
2757,2467,2087
2757,2467,2082
2761,2467,2082
2761,2466,2082
2761,2466,2082
2757,2466,2082
2757,2468,2082
2757,2468,2083
2762,2468,2083
2762,2468,2083
2762,2468,2087
2758,2468,2087
2758,2469,2087
2758,2469,2084
2759,2469,2084
2759,2470,2084
2759,2470,2084
2755,2470,2084
2755,2469,2084
2755,2469,2080
2762,2469,2080
2762,2469,2080
2762,2469,2079
2759,2469,2079
2759,2470,2079
2759,2470,2081
2753,2470,2081
2753,2472,2081
2753,2472,2075
2747,2472,2075
2747,2471,2075
2747,2471,2077
2756,2471,2077
2756,2470,2077
2756,2470,2075
2750,2470,2075
2750,2469,2075
2750,2469,2080
2747,2469,2080
2747,2473,2080
2747,2473,2072
2744,2473,2072
2744,2470,2072
2744,2470,2073
2751,2470,2073
2751,2464,2073
2751,2464,2069
2748,2464,2069
2748,2456,2069
2748,2456,2074
2748,2456,2074
2748,2453,2074
2748,2453,2077
2750,2453,2077
2750,2450,2077
2750,2450,2080
2749,2450,2080
2749,2456,2080
2749,2456,2082
2753,2456,2082
2753,2461,2082
2753,2461,2079
2749,2461,2079
2749,2456,2079
2749,2456,2082
2752,2456,2082
2752,2462,2082
2752,2462,2085
2762,2462,2085
2762,2456,2085
2762,2456,2081
2759,2456,2081
2759,2465,2081
2759,2465,2080
2756,2465,2080
2756,2458,2080
2756,2458,2073
2760,2458,2073
2760,2451,2073
2760,2451,2081
2754,2451,2081
2754,2458,2081
2754,2458,2068
2759,2458,2068
2759,2450,2068
2759,2450,2070
2754,2450,2070
2754,2454,2070
2754,2454,2076
2753,2454,2076
2753,2455,2076
2753,2455,2078
2759,2455,2078
2759,2453,2078
2759,2453,2087
2754,2453,2087
2754,2457,2087
2754,2457,2078
2754,2457,2078
2754,2461,2078
2754,2461,2085
2752,2461,2085
2752,2464,2087
2750,2464,2087
2750,2465,2080
2752,2465,2080
2752,2460,2083
2743,2460,2083
2743,2465,2080
2746,2465,2080
2746,2460,2082
2748,2460,2082
2748,2461,2081
2746,2461,2081
2746,2465,2081
2743,2465,2081
2743,2459,2086
2741,2459,2086
2741,2460,2078
2745,2460,2078
2745,2454,2079
2742,2454,2079
2742,2456,2079
2742,2456,2082
2743,2456,2082
2743,2458,2082
2743,2458,2084
2748,2458,2084
2748,2459,2084
2748,2459,2083
2746,2459,2083
2746,2461,2083
2746,2461,2085
2747,2461,2085
2747,2456,2081
2753,2456,2081
2753,2455,2080
2748,2455,2080
2748,2448,2080
2748,2448,2077
2754,2448,2077
2754,2450,2077
2754,2450,2087
2755,2450,2087
2755,2446,2087
2755,2446,2083
2758,2446,2083
2758,2447,2081
2757,2447,2081
2757,2450,2089
2753,2450,2089
2753,2455,2086
2755,2455,2086
2755,2459,2084
2756,2459,2084
2756,2461,2088
2753,2461,2088
2753,2462,2083
2752,2462,2083
2752,2462,2083
2758,2462,2083
2758,2467,2085
2751,2467,2085
2751,2464,2078
2751,2464,2078
2751,2461,2082
2757,2461,2082
2757,2461,2080
2753,2461,2080
2753,2457,2077
2750,2457,2077
2750,2463,2079
2755,2463,2079
2755,2463,2080
2756,2463,2080
2756,2458,2081
2754,2458,2081
2754,2464,2077
2752,2464,2077
2752,2466,2079
2754,2466,2079
2754,2469,2083
2751,2469,2083
2751,2469,2084
2752,2469,2084
2752,2467,2078
2758,2467,2078
2758,2469,2077
2751,2469,2077
2751,2469,2076
2752,2469,2076
2752,2466,2077
2755,2466,2077
2755,2466,2077
2755,2466,2077
2752,2466,2077
2752,2470,2080
2756,2470,2080
2756,2470,2076
2753,2470,2076
2753,2470,2076
2753,2473,2076
2751,2473,2076
2751,2473,2075
2751,2473,2075
2751,2470,2080
2753,2470,2080
2753,2459,2075
2753,2459,2075
2753,2457,2078
2752,2457,2078
2752,2447,2084
2756,2447,2084
2756,2447,2079
2756,2447,2079
2756,2449,2080
2752,2449,2080
2752,2454,2082
2749,2454,2082
2749,2456,2081
2750,2456,2081
2750,2460,2082
2747,2460,2082
2747,2458,2077
2746,2458,2077
2746,2465,2082
2749,2465,2082
2749,2458,2075
2746,2458,2075
2746,2459,2073
2748,2459,2073
2748,2460,2068
2747,2460,2068
2747,2453,2074
2748,2453,2074
2748,2450,2065
2744,2450,2065
2744,2444,2060
2748,2444,2060
2748,2450,2065
2748,2450,2065
2748,2447,2075
2746,2447,2075
2746,2451,2078
2752,2451,2078
2752,2451,2076
2752,2459,2076
2748,2459,2076
2748,2462,2075
2748,2462,2075
2748,2462,2074
2748,2463,2074
2750,2463,2074
2750,2463,2073
2750,2464,2073
2751,2464,2073
2751,2464,2079
2751,2467,2079
2745,2467,2079
2745,2467,2072
2745,2464,2072
2746,2464,2072
2746,2464,2075
2746,2466,2075
2744,2466,2075
2744,2466,2079
2744,2464,2079
2749,2464,2079
2749,2464,2074
2749,2468,2074
2749,2468,2074
2749,2468,2072
2749,2464,2072
2745,2464,2072
2745,2464,2077
2745,2462,2077
2746,2462,2077
2746,2462,2071
2746,2474,2071
2744,2474,2071
2744,2474,2071
2744,2462,2071
2745,2462,2071
2745,2462,2079
2745,2464,2079
2751,2464,2079
2751,2464,2079
2751,2454,2079
2751,2454,2079
2751,2454,2076
2751,2454,2076
2751,2454,2076
2751,2454,2074
2751,2451,2074
2747,2451,2074
2747,2451,2074
2747,2454,2074
2746,2454,2074
2746,2454,2078
2746,2451,2078
2746,2451,2078
2746,2451,2079
2746,2456,2079
2742,2456,2079
2742,2456,2076
2742,2456,2076
2739,2456,2076
2739,2456,2073
2739,2457,2073
2743,2457,2073
2743,2457,2076
2743,2459,2076
2745,2459,2076
2745,2459,2073
2745,2458,2073
2739,2458,2073
2739,2458,2072
2739,2459,2072
2745,2459,2072
2745,2459,2073
2745,2460,2073
2737,2460,2073
2737,2460,2081
2737,2462,2081
2742,2462,2081
2742,2462,2073
2742,2455,2073
2739,2455,2073
2739,2455,2076
2739,2463,2076
2739,2463,2076
2739,2463,2072
2739,2460,2072
2744,2460,2072
2744,2460,2071
2744,2460,2071
2738,2460,2071
2738,2460,2067
2738,2459,2067
2740,2459,2067
2740,2459,2067
2740,2464,2067
2742,2464,2067
2742,2464,2068
2742,2466,2068
2732,2466,2068
2732,2466,2061
2732,2457,2061
2736,2457,2061
2736,2457,2060
2736,2464,2060
2727,2464,2060
2727,2464,2066
2727,2466,2066
2729,2466,2066
2729,2466,2066
2729,2467,2066
2728,2467,2066
2728,2467,2057
2728,2470,2057
2728,2470,2057
2728,2470,2062
2728,2470,2062
2731,2470,2062
2731,2470,2064
2731,2465,2064
2732,2465,2064
2732,2465,2066
2732,2465,2066
2733,2465,2066
2733,2465,2071
2733,2464,2071
2734,2464,2071
2734,2464,2076
2734,2464,2076
2736,2464,2076
2736,2464,2066
2736,2466,2066
2742,2466,2066
2742,2466,2072
2742,2466,2072
2740,2466,2072
2740,2466,2073
2740,2457,2073
2744,2457,2073
2744,2457,2072
2744,2452,2072
2743,2452,2072
2743,2452,2071
2743,2443,2071
2746,2443,2071
2746,2443,2072
2746,2445,2072
2744,2445,2072
2744,2445,2080
2744,2447,2080
2744,2447,2080
2744,2447,2078
2744,2453,2078
2739,2453,2073
2739,2452,2073
2743,2452,2073
2743,2456,2073
2743,2456,2073
2743,2456,2075
2743,2453,2075
2742,2453,2075
2742,2453,2078
2742,2452,2078
2739,2452,2078
2739,2452,2071
2739,2454,2071
2742,2454,2071
2742,2454,2076
2742,2460,2076
2739,2460,2076
2739,2460,2076
2739,2462,2076
2740,2462,2081
2740,2468,2081
2739,2468,2081
2739,2468,2076
2739,2455,2076
2736,2455,2076
2736,2455,2064
2736,2454,2064
2742,2454,2064
2742,2454,2064
2742,2454,2064
2735,2454,2064
2735,2454,2060
2735,2451,2060
2739,2451,2059
2739,2450,2059
2737,2450,2063
2737,2443,2063
2744,2443,2062
2744,2445,2062
2741,2445,2063
2741,2453,2063
2739,2453,2068
2739,2453,2068
2739,2453,2065
2739,2457,2065
2745,2457,2070
2745,2465,2070
2743,2465,2075
2743,2467,2075
2738,2467,2070
2738,2466,2070
2743,2466,2074
2743,2462,2074
2743,2462,2069
2743,2464,2069
2734,2464,2072
2734,2464,2072
2738,2464,2075
2738,2466,2075
2743,2466,2074
2743,2468,2074
2743,2468,2071
2743,2464,2071
2743,2464,2071
2743,2464,2073
2743,2465,2073
2743,2465,2073
2743,2465,2070
2743,2466,2070
2743,2466,2074
2743,2456,2074
2739,2456,2071
2739,2452,2071
2742,2452,2072
2742,2448,2072
2742,2448,2070
2742,2445,2070
2742,2445,2074
2742,2443,2074
2735,2443,2066
2735,2444,2066
2736,2444,2075
2736,2449,2075
2736,2449,2074
2736,2455,2074
2743,2455,2072
2743,2452,2072
2736,2452,2076
2736,2452,2076
2735,2452,2078
2735,2455,2078
2730,2455,2075
2730,2457,2075
2726,2457,2075
2726,2453,2075
2729,2453,2076
2729,2452,2076
2727,2452,2071
2727,2457,2071
2732,2457,2072
2732,2448,2072
2731,2448,2073
2731,2447,2073
2730,2447,2072
2730,2453,2072
2729,2453,2075
2729,2453,2075
2727,2453,2072
2727,2453,2072
2725,2453,2074
2725,2452,2074
2729,2452,2073
2729,2455,2073
2727,2455,2069
2727,2454,2069
2730,2454,2073
2730,2449,2073
2730,2449,2074
2730,2451,2074
2732,2451,2077
2732,2451,2077
2739,2451,2076
2739,2452,2076
2740,2452,2074
2740,2455,2074
2740,2455,2077
2740,2451,2077
2743,2451,2075
2743,2460,2075
2740,2460,2075
2740,2456,2075
2737,2456,2071
2737,2466,2071
2741,2466,2070
2741,2466,2070
2738,2466,2074
2738,2463,2074
2738,2463,2077
2738,2463,2077
2737,2463,2073
2737,2459,2073
2742,2459,2073
2742,2454,2073
2741,2454,2074
2741,2446,2074
2744,2446,2076
2744,2444,2076
2746,2444,2077
2746,2449,2077
2747,2449,2072
2747,2452,2072
2744,2452,2074
2744,2459,2074
2752,2459,2077
2752,2457,2077
2748,2457,2078
2748,2460,2078
2749,2460,2078
2749,2455,2078
2747,2455,2077
2747,2456,2077
2749,2456,2080
2749,2458,2080
2750,2458,2081
2750,2460,2081
2738,2460,2079
2738,2455,2079
2744,2455,2075
2744,2455,2075
2750,2455,2076
2750,2454,2076
2741,2454,2073
2741,2455,2073
2740,2455,2066
2740,2451,2066
2741,2451,2065
2741,2453,2065
2745,2453,2064
2745,2448,2064
2745,2448,2075
2745,2450,2075
2748,2450,2075
2748,2451,2075
2743,2451,2072
2743,2454,2072
2735,2454,2072
2735,2459,2072
2739,2459,2079
2739,2465,2079
2741,2465,2078
2741,2460,2078
2743,2460,2078
2743,2462,2078
2742,2462,2078
2742,2464,2078
2740,2464,2081
2740,2467,2081
2743,2467,2080
2743,2464,2080
2744,2464,2079
2744,2462,2079
2739,2462,2080
2739,2463,2080
2739,2463,2082
2739,2464,2082
2742,2464,2080
2742,2463,2080
2742,2463,2082
2734,2463,2082
2734,2458,2082
2734,2458,2081
2740,2458,2081
2740,2457,2081
2740,2457,2083
2740,2452,2083
2746,2452,2077
2746,2445,2077
2742,2445,2080
2742,2450,2080
2743,2450,2077
2743,2447,2077
2746,2447,2075
2746,2453,2075
2746,2453,2073
2742,2453,2073
2742,2453,2073
2742,2453,2074
2743,2453,2074
2743,2452,2074
2743,2452,2072
2741,2452,2072
2741,2455,2072
2741,2455,2073
2736,2455,2073
2736,2453,2073
2730,2453,2073
2730,2458,2073
2727,2458,2076
2727,2458,2076
2724,2458,2073
2724,2459,2073
2727,2459,2073
2727,2459,2073
2725,2459,2072
2725,2456,2072
2732,2456,2076
2732,2458,2076
2730,2458,2078
2730,2458,2078
2734,2458,2079
2734,2460,2079
2735,2460,2085
2735,2462,2085
2731,2462,2084
2731,2462,2084
2736,2462,2081
2736,2460,2081
2735,2460,2084
2735,2464,2084
2739,2464,2083
2739,2462,2083
2739,2462,2086
2739,2462,2086
2739,2463,2086
2742,2463,2087
2742,2462,2087
2739,2462,2079
2739,2460,2079
2739,2460,2085
2741,2460,2085
2741,2463,2085
2741,2463,2082
2741,2466,2082
2742,2466,2088
2742,2471,2088
2742,2471,2081
2743,2471,2081
2743,2469,2081
2743,2469,2082
2743,2469,2082
2743,2464,2082
2743,2464,2077
2745,2464,2077
2745,2464,2077
2745,2464,2083
2742,2464,2083
2742,2460,2083
2742,2460,2088
2750,2460,2088
2750,2465,2088
2750,2465,2079
2746,2465,2079
2746,2455,2079
2746,2455,2082
2747,2455,2082
2747,2448,2082
2747,2448,2082
2751,2448,2082
2751,2451,2082
2751,2451,2081
2741,2451,2081
2741,2452,2081
2741,2452,2083
2751,2452,2083
2751,2455,2083
2751,2455,2086
2742,2455,2086
2742,2457,2086
2742,2457,2084
2748,2457,2084
2748,2461,2084
2748,2461,2082
2744,2461,2082
2744,2455,2082
2744,2455,2089
2738,2455,2089
2738,2453,2089
2738,2453,2082
2741,2453,2082
2741,2459,2082
2741,2459,2086
2743,2459,2086
2743,2459,2086
2743,2459,2085
2741,2459,2085
2741,2455,2085
2741,2455,2085
2741,2455,2085
2741,2456,2085
2741,2456,2089
2743,2456,2089
2743,2461,2089
2743,2461,2087
2740,2461,2087
2740,2462,2087
2740,2462,2087
2737,2462,2087
2737,2458,2087
2737,2458,2083
2741,2458,2083
2741,2456,2083
2741,2456,2072
2734,2456,2072
2734,2456,2072
2734,2456,2075
2736,2456,2075
2736,2454,2075
2736,2454,2075
2736,2454,2075
2736,2455,2075
2736,2455,2073
2739,2455,2073
2739,2448,2073
2739,2448,2073
2735,2448,2073
2735,2450,2073
2735,2450,2079
2741,2450,2079
2741,2455,2079
2741,2455,2075
2746,2455,2075
2746,2458,2075
2746,2458,2088
2742,2458,2088
2742,2462,2088
2742,2462,2086
2741,2462,2086
2741,2461,2086
2741,2461,2083
2739,2461,2083
2739,2468,2083
2739,2468,2083
2740,2468,2083
2740,2466,2083
2740,2466,2083
2744,2466,2083
2744,2467,2083
2744,2467,2086
2735,2467,2086
2735,2469,2086
2735,2469,2088
2744,2469,2088
2744,2466,2088
2744,2466,2086
2746,2466,2086
2746,2470,2086
2746,2470,2084
2737,2470,2084
2737,2465,2085
2745,2465,2085
2745,2461,2083
2740,2461,2083
2740,2463,2083
2740,2463,2089
2743,2463,2089
2743,2456,2089
2743,2456,2090
2740,2456,2090
2740,2452,2090
2740,2452,2089
2744,2452,2089
2744,2445,2091
2749,2445,2091
2749,2453,2092
2746,2453,2092
2746,2446,2087
2744,2446,2087
2744,2453,2087
2744,2453,2093
2742,2453,2093
2742,2453,2093
2742,2453,2086
2745,2453,2086
2745,2456,2086
2745,2456,2088
2738,2456,2088
2738,2460,2089
2741,2460,2089
2741,2462,2083
2741,2462,2083
2741,2460,2090
2739,2460,2090
2739,2464,2085
2735,2464,2085
2735,2465,2091
2740,2465,2091
2740,2460,2086
2739,2460,2086
2739,2460,2084
2737,2460,2084
2737,2457,2084
2743,2457,2084
2743,2460,2088
2737,2460,2088
2737,2466,2085
2738,2466,2085
2738,2460,2089
2737,2460,2089
2737,2465,2087
2738,2465,2087
2738,2463,2084
2740,2463,2084
2740,2466,2080
2739,2466,2080
2739,2468,2087
2741,2468,2087
2741,2469,2088
2736,2469,2088
2736,2469,2085
2740,2469,2085
2740,2469,2082
2742,2469,2082
2742,2473,2079
2736,2473,2079
2736,2471,2086
2736,2471,2086
2736,2467,2085
2737,2467,2085
2737,2466,2084
2735,2466,2084
2735,2471,2086
2731,2471,2086
2731,2469,2084
2732,2469,2084
2732,2470,2084
2731,2470,2084
2731,2465,2088
2727,2465,2088
2727,2456,2089
2727,2456,2089
2727,2456,2078
2727,2450,2078
2730,2450,2078
2730,2440,2086
2731,2440,2086
2731,2439,2083
2729,2439,2083
2729,2438,2086
2728,2438,2086
2728,2439,2083
2727,2439,2083
2727,2444,2083
2732,2444,2083
2732,2441,2084
2735,2441,2084
2735,2444,2089
2732,2444,2089
2732,2446,2086
2734,2446,2086
2734,2450,2086
2738,2450,2086
2738,2453,2089
2738,2453,2089
2738,2450,2086
2742,2450,2086
2742,2453,2087
2740,2453,2087
2740,2457,2087
2741,2457,2087
2741,2458,2088
2740,2458,2088
2740,2461,2083
2738,2461,2083
2738,2453,2081
2735,2453,2081
2735,2456,2076
2742,2456,2076
2742,2456,2072
2739,2456,2072
2739,2456,2074
2739,2449,2074
2738,2449,2074
2738,2449,2077
2738,2448,2077
2741,2448,2077
2741,2448,2080
2741,2454,2080
2742,2454,2080
2742,2454,2080
2742,2457,2080
2744,2457,2080
2744,2461,2087
2742,2461,2087
2742,2461,2076
2742,2467,2076
2741,2467,2076
2741,2467,2079
2741,2470,2079
2736,2470,2079
2736,2470,2082
2736,2465,2082
2740,2465,2082
2740,2465,2076
2740,2467,2076
2734,2467,2076
2734,2469,2082
2736,2469,2082
2736,2469,2078
2736,2466,2078
2729,2466,2078
2729,2466,2077
2729,2469,2077
2729,2469,2077
2729,2469,2080
2729,2474,2080
2729,2474,2080
2729,2474,2073
2729,2466,2073
2729,2466,2073
2729,2466,2077
2729,2460,2077
2731,2460,2077
2731,2460,2081
2731,2455,2081
2734,2455,2081
2734,2455,2078
2734,2449,2078
2736,2449,2078
2736,2449,2076
2736,2449,2076
2735,2449,2076
2735,2449,2082
2735,2454,2082
2738,2454,2082
2738,2454,2080
2738,2452,2080
2732,2452,2080
2732,2452,2081
2732,2452,2081
2735,2452,2081
2735,2452,2088
2735,2457,2088
2745,2457,2088
2745,2457,2085
2745,2455,2085
2744,2455,2085
2744,2455,2082
2744,2460,2082
2738,2460,2082
2738,2460,2089
2738,2460,2089
2739,2460,2089
2739,2460,2081
2739,2458,2081
2737,2458,2081
2737,2458,2081
2737,2461,2081
2741,2461,2081
2741,2461,2082
2741,2458,2082
2740,2458,2082
2740,2458,2082
2740,2458,2082
2734,2458,2082
2734,2458,2080
2734,2459,2080
2737,2459,2080
2737,2459,2083
2737,2457,2083
2739,2457,2083
2739,2457,2081
2739,2454,2081
2738,2454,2081
2738,2454,2080
2738,2457,2080
2741,2457,2080
2741,2457,2080
2741,2461,2080
2739,2461,2080
2739,2461,2081
2739,2464,2081
2735,2464,2081
2735,2464,2082
2735,2461,2082
2738,2461,2082
2738,2461,2081
2738,2459,2081
2737,2459,2081
2737,2459,2079
2737,2462,2079
2738,2462,2079
2738,2462,2083
2738,2465,2083
2741,2465,2083
2741,2465,2080
2741,2464,2080
2732,2464,2080
2732,2464,2078
2732,2464,2078
2739,2464,2078
2739,2464,2077
2739,2464,2077
2738,2464,2077
2738,2464,2077
2738,2459,2077
2740,2459,2077
2740,2459,2078
2740,2464,2078
2742,2464,2078
2742,2464,2076
2742,2468,2076
2738,2468,2076
2738,2468,2076
2738,2465,2076
2732,2465,2076
2732,2465,2079
2732,2465,2079
2735,2465,2079
2735,2465,2079
2735,2459,2079
2737,2459,2079
2737,2459,2080
2737,2452,2080
2736,2452,2080
2736,2452,2081
2736,2443,2081
2740,2443,2081
2740,2443,2077
2740,2450,2077
2736,2450,2077
2736,2450,2077
2736,2451,2077
2735,2451,2077
2735,2451,2078
2735,2448,2078
2732,2448,2078
2732,2448,2081
2732,2448,2081
2734,2448,2081
2734,2448,2078
2734,2453,2078
2735,2453,2078
2735,2453,2078
2735,2451,2078
2732,2451,2078
2732,2451,2079
2732,2456,2079
2732,2456,2079
2732,2456,2078
2732,2455,2078
2730,2455,2078
2730,2455,2082
2730,2457,2082
2734,2457,2082
2734,2457,2082
2734,2456,2082
2734,2456,2082
2734,2456,2078
2734,2459,2078
2734,2459,2078
2734,2459,2073
2734,2453,2073
2729,2453,2073
2729,2453,2077
2729,2458,2077
2732,2458,2077
2732,2458,2080
2732,2460,2080
2732,2460,2080
2732,2460,2074
2732,2462,2074
2734,2462,2074
2734,2462,2075
2734,2464,2075
2733,2464,2075
2733,2464,2071
2733,2457,2071
2733,2457,2071
2733,2457,2064
2733,2453,2064
2725,2453,2064
2725,2453,2068
2725,2456,2068
2730,2456,2068
2730,2456,2062
2729,2453,2062
2729,2453,2058
2731,2446,2058
2731,2446,2066
2731,2449,2066
2724,2449,2066
2724,2449,2071
2735,2455,2071
2735,2455,2071
2735,2455,2071
2733,2455,2071
2733,2455,2072
2733,2459,2072
2729,2459,2072
2729,2459,2070
2729,2463,2070
2730,2463,2070
2730,2463,2075
2730,2463,2075
2731,2463,2075
2731,2463,2075
2732,2464,2075
2732,2464,2071
2732,2462,2071
2727,2462,2071
2727,2462,2070
2726,2463,2070
2726,2463,2076
2730,2456,2076
2730,2456,2070
2735,2451,2070
2735,2451,2075
2735,2450,2075
2733,2450,2075
2733,2450,2073
2733,2444,2073
2733,2444,2070
2736,2448,2070
2736,2448,2069
2736,2447,2069
2732,2447,2069
2732,2447,2070
2732,2445,2070
2733,2445,2070
2733,2445,2073
2733,2450,2073
2724,2450,2073
2724,2450,2071
2724,2452,2071
2734,2452,2071
2734,2452,2074
2734,2455,2074
2734,2455,2070
2725,2458,2070
2725,2458,2074
2729,2453,2074
2729,2453,2068
2732,2454,2068
2732,2454,2069
2732,2452,2069
2728,2452,2069
2728,2452,2072
2728,2453,2072
2726,2453,2072
2726,2453,2070
2726,2454,2070
2731,2454,2070
2731,2454,2068
2730,2450,2068
2730,2450,2066
2731,2451,2066
2731,2451,2070
2727,2457,2070
2727,2457,2071
2726,2450,2071
2726,2450,2069
2732,2455,2069
2732,2455,2072
2730,2455,2072
2730,2455,2065
2724,2456,2065
2724,2456,2068
2734,2457,2068
2734,2457,2068
2723,2457,2068
2723,2457,2070
2731,2455,2070
2731,2455,2066
2725,2460,2066
2725,2460,2065
2726,2461,2065
2726,2461,2067
2723,2461,2067
2723,2461,2066
2723,2462,2066
2724,2462,2066
2724,2462,2068
2731,2463,2068
2731,2463,2067
2725,2463,2067
2725,2463,2065
2732,2461,2065
2732,2461,2061
2724,2458,2061
2724,2458,2066
2729,2458,2066
2729,2458,2066
2725,2450,2066
2725,2450,2064
2724,2448,2064
2724,2448,2060
2732,2444,2060
2732,2444,2063
2728,2441,2063
2728,2441,2065
2730,2444,2065
2730,2444,2064
2733,2447,2064
2733,2447,2063
2734,2444,2063
2734,2444,2059
2733,2448,2059
2733,2448,2063
2730,2448,2063
2730,2448,2065
2725,2445,2065
2725,2445,2065
2722,2446,2065
2722,2446,2064
2723,2447,2064
2723,2447,2064
2729,2453,2064
2729,2453,2057
2716,2455,2057
2716,2455,2057
2716,2449,2057
2716,2449,2061
2716,2456,2061
2717,2456,2061
2717,2456,2061
2715,2453,2061
2715,2453,2061
2714,2455,2061
2714,2455,2056
2707,2454,2056
2707,2454,2053
2711,2456,2053
2711,2456,2060
2713,2453,2060
2713,2453,2058
2709,2454,2058
2709,2454,2052
2709,2450,2052
2709,2450,2056
2709,2448,2056
2709,2448,2051
2712,2442,2051
2712,2442,2047
2712,2442,2047
2712,2442,2056
2713,2442,2056
2713,2442,2060
2715,2440,2060
2715,2440,2062
2713,2441,2062
2713,2441,2062
2715,2442,2062
2715,2442,2067
2719,2446,2067
2719,2446,2063
2713,2444,2063
2713,2444,2062
2710,2442,2062
2710,2442,2068
2714,2442,2068
2714,2442,2067
2713,2438,2067
2713,2438,2064
2720,2433,2064
2720,2433,2058
2718,2431,2058
2718,2431,2064
2718,2426,2064
2718,2426,2065
2724,2431,2065
2724,2431,2064
2723,2437,2064
2723,2437,2067
2723,2435,2067
2723,2435,2062
2726,2439,2062
2726,2439,2066
2722,2442,2066
2722,2442,2066
2720,2438,2066
2720,2438,2065
2724,2441,2065
2724,2441,2068
2728,2446,2068
2728,2446,2067
2724,2450,2067
2724,2450,2063
2721,2451,2063
2721,2451,2063
2721,2442,2063
2721,2442,2067
2721,2441,2067
2721,2441,2065
2724,2440,2065
2724,2440,2063
2724,2445,2063
2724,2445,2065
2726,2448,2065
2726,2448,2070
2723,2450,2070
2723,2450,2067
2723,2455,2067
2723,2455,2068
2723,2450,2068
2723,2450,2064
2728,2455,2064
2728,2455,2063
2727,2458,2063
2727,2458,2066
2729,2455,2066
2729,2455,2065
2727,2450,2065
2727,2450,2067
2727,2450,2067
2727,2450,2065
2723,2455,2065
2723,2455,2059
2722,2457,2059
2722,2457,2060
2718,2459,2060
2718,2459,2064
2720,2456,2064
2720,2456,2063
2731,2455,2063
2731,2455,2061
2722,2455,2061
2722,2454,2061
2722,2454,2061
2725,2454,2061
2725,2454,2059
2725,2450,2059
2725,2450,2062
2730,2450,2062
2730,2441,2062
2730,2441,2057
2725,2435,2057
2725,2435,2057
2722,2431,2057
2722,2431,2069
2721,2433,2069
2721,2433,2063
2723,2439,2063
2723,2439,2067
2721,2440,2067
2721,2440,2072
2717,2440,2072
2717,2440,2063
2720,2442,2063
2720,2442,2073
2718,2444,2073
2718,2444,2064
2720,2445,2064
2720,2445,2068
2718,2446,2068
2718,2446,2065
2714,2443,2065
2714,2443,2068
2712,2439,2068
2712,2439,2068
2715,2445,2068
2715,2445,2065
2718,2444,2065
2718,2444,2069
2716,2441,2069
2716,2441,2070
2717,2450,2070
2717,2450,2067
2718,2441,2067
2718,2441,2065
2717,2441,2065
2717,2441,2063
2720,2445,2063
2720,2445,2063
2722,2445,2063
2722,2451,2063
2722,2451,2060
2719,2453,2060
2719,2453,2062
2713,2445,2062
2713,2445,2057
2717,2445,2057
2717,2443,2057
2717,2443,2051
2724,2443,2051
2724,2440,2051
2724,2440,2052
2720,2440,2052
2720,2437,2052
2720,2437,2050
2723,2437,2050
2723,2436,2050
2723,2436,2052
2723,2441,2052
2723,2441,2058
2725,2445,2058
2725,2445,2059
2726,2445,2059
2726,2445,2058
2719,2445,2058
2719,2445,2058
2719,2445,2063
2724,2445,2063
2724,2453,2063
2724,2453,2064
2726,2453,2064
2726,2450,2064
2726,2450,2063
2720,2450,2063
2720,2441,2059
2721,2435,2059
2721,2435,2068
2719,2433,2068
2719,2433,2062
2722,2438,2062
2722,2438,2061
2719,2436,2061
2719,2436,2069
2719,2439,2069
2719,2439,2064
2718,2441,2064
2718,2441,2070
2715,2441,2070
2715,2442,2066
2719,2442,2066
2719,2441,2069
2720,2441,2069
2720,2446,2066
2717,2446,2066
2717,2442,2068
2717,2442,2068
2717,2442,2066
2715,2442,2066
2715,2442,2064
2715,2442,2064
2715,2448,2058
2713,2448,2058
2713,2441,2066
2716,2441,2066
2716,2442,2066
2720,2442,2066
2720,2442,2062
2714,2442,2062
2714,2446,2068
2719,2446,2068
2719,2443,2065
2716,2443,2065
2716,2443,2059
2712,2443,2059
2712,2442,2062
2716,2442,2062
2716,2445,2059
2722,2445,2059
2722,2448,2062
2718,2448,2062
2718,2455,2068
2721,2455,2068
2721,2453,2060
2719,2453,2060
2719,2452,2068
2720,2452,2068
2720,2455,2065
2719,2455,2065
2719,2452,2069
2717,2452,2069
2717,2452,2067
2716,2452,2067
2716,2451,2063
2714,2451,2063
2714,2455,2069
2713,2455,2069
2713,2460,2071
2712,2460,2071
2712,2457,2061
2715,2457,2061
2715,2451,2063
2716,2451,2063
2716,2447,2065
2715,2447,2065
2715,2437,2060
2714,2437,2060
2714,2434,2062
2710,2434,2062
2710,2429,2057
2715,2429,2057
2715,2434,2063
2708,2434,2063
2708,2434,2057
2708,2434,2057
2708,2433,2059
2705,2433,2059
2705,2437,2061
2702,2437,2061
2702,2436,2061
2711,2436,2061
2711,2433,2063
2706,2433,2063
2706,2436,2063
2706,2436,2063
2706,2442,2067
2709,2442,2067
2709,2450,2070
2703,2450,2070
2703,2447,2064
2713,2447,2064
2713,2446,2068
2713,2446,2068
2713,2447,2066
2708,2447,2066
2708,2445,2067
2714,2445,2067
2714,2444,2068
2706,2444,2068
2706,2443,2068
2713,2443,2068
2713,2450,2065
2713,2450,2065
2713,2452,2071
2724,2452,2071
2724,2446,2066
2721,2446,2066
2721,2446,2065
2719,2446,2065
2719,2446,2066
2719,2448,2066
2714,2448,2066
2714,2449,2067
2712,2449,2067
2712,2449,2065
2712,2450,2065
2717,2450,2065
2717,2450,2061
2715,2450,2061
2715,2450,2058
2715,2443,2058
2715,2443,2058
2715,2443,2057
2714,2443,2057
2714,2435,2056
2715,2435,2056
2715,2438,2054
2721,2438,2054
2721,2433,2060
2721,2433,2060
2721,2438,2060
2722,2438,2064
2722,2443,2064
2721,2443,2065
2721,2449,2065
2720,2449,2066
2720,2440,2066
2722,2440,2066
2722,2442,2069
2724,2442,2069
2724,2437,2066
2719,2437,2065
2719,2437,2065
2714,2437,2065
2714,2434,2068
2717,2434,2068
2717,2445,2068
2718,2445,2070
2718,2442,2070
2711,2442,2070
2711,2442,2069
2715,2442,2069
2715,2440,2069
2716,2440,2069
2716,2441,2072
2717,2441,2072
2717,2441,2070
2717,2446,2070
2713,2446,2068
2713,2444,2068
2714,2444,2066
2714,2440,2066
2720,2440,2072
2720,2440,2072
2723,2440,2072
2723,2442,2072
2720,2442,2072
2720,2442,2066
2720,2440,2066
2719,2440,2066
2719,2440,2066
2719,2440,2066
2716,2440,2066
2716,2440,2070
2716,2437,2070
2707,2437,2069
2707,2436,2069
2710,2436,2066
2710,2440,2066
2706,2440,2071
2706,2439,2071
2703,2439,2073
2703,2444,2073
2704,2444,2065
2704,2441,2065
2706,2441,2075
2706,2450,2075
2704,2450,2075
2704,2446,2075
2702,2446,2072
2702,2444,2072
2706,2444,2069
2706,2436,2069
2709,2436,2069
2709,2440,2069
2705,2440,2072
2705,2438,2072
2705,2438,2069
2705,2437,2069
2709,2437,2068
2709,2432,2068
2706,2432,2066
2706,2436,2066
2711,2436,2070
2711,2445,2070
2712,2445,2069
2712,2438,2069
2717,2438,2067
2717,2434,2067
2716,2434,2069
2716,2431,2069
2721,2431,2066
2721,2428,2066
2721,2428,2069
2721,2425,2069
2718,2425,2070
2718,2428,2070
2715,2428,2068
2715,2431,2068
2714,2431,2068
2714,2438,2068
2719,2438,2069
2719,2438,2069
2713,2438,2074
2713,2431,2074
2717,2431,2074
2717,2436,2074
2716,2436,2067
2716,2444,2067
2722,2444,2070
2722,2450,2070
2723,2450,2068
2723,2449,2068
2717,2449,2065
2717,2446,2065
2718,2446,2069
2718,2446,2069
2720,2446,2072
2720,2443,2072
2719,2443,2071
2719,2442,2071
2713,2442,2067
2713,2444,2067
2714,2444,2070
2714,2447,2070
2716,2447,2070
2716,2444,2070
2716,2444,2069
2716,2446,2069
2714,2446,2073
2714,2446,2073
2715,2446,2068
2715,2449,2068
2718,2449,2065
2718,2450,2065
2711,2450,2071
2711,2448,2071
2717,2448,2069
2717,2448,2069
2716,2448,2068
2716,2452,2068
2714,2452,2069
2714,2448,2069
2713,2448,2067
2713,2450,2067
2712,2450,2064
2712,2442,2064
2715,2442,2062
2715,2439,2062
2718,2439,2058
2718,2438,2058
2717,2438,2055
2717,2438,2055
2718,2438,2058
2718,2441,2058
2722,2441,2063
2722,2430,2063
2717,2430,2067
2717,2429,2067
2715,2429,2063
2715,2427,2063
2715,2427,2060
2715,2437,2060
2716,2437,2069
2716,2435,2069
2716,2435,2064
2716,2437,2064
2721,2437,2074
2721,2439,2074
2723,2439,2070
2723,2436,2070
2719,2436,2069
2719,2441,2069
2717,2441,2074
2717,2440,2074
2719,2440,2071
2719,2447,2071
2717,2447,2077
2717,2447,2077
2716,2447,2075
2716,2448,2075
2715,2448,2076
2715,2444,2076
2715,2444,2074
2715,2444,2074
2715,2441,2074
2718,2441,2075
2718,2441,2075
2718,2441,2074
2718,2441,2074
2718,2440,2074
2718,2440,2071
2717,2440,2071
2717,2442,2071
2717,2442,2067
2716,2442,2067
2716,2448,2067
2716,2448,2062
2712,2448,2062
2712,2448,2062
2712,2448,2063
2714,2448,2063
2714,2451,2063
2714,2451,2064
2714,2451,2064
2712,2451,2064
2712,2451,2064
2712,2451,2059
2712,2451,2059
2712,2451,2060
2708,2451,2060
2708,2453,2060
2708,2453,2059
2703,2453,2059
2703,2455,2059
2703,2455,2058
2707,2455,2058
2707,2456,2058
2707,2456,2061
2707,2452,2061
2702,2452,2061
2702,2451,2061
2707,2451,2063
2707,2448,2063
2707,2448,2068
2711,2448,2068
2711,2451,2068
2711,2451,2066
2711,2451,2066
2711,2454,2066
2711,2454,2065
2713,2454,2065
2713,2454,2065
2713,2454,2064
2715,2454,2064
2715,2452,2064
2720,2452,2067
2720,2443,2067
2720,2443,2066
2717,2443,2066
2717,2436,2066
2717,2436,2072
2722,2436,2072
2722,2434,2072
2722,2434,2066
2722,2434,2066
2722,2436,2066
2722,2436,2073
2723,2436,2073
2723,2432,2073
2723,2432,2073
2719,2432,2073
2719,2434,2073
2719,2434,2068
2719,2443,2068
2724,2443,2074
2724,2440,2074
2714,2440,2070
2714,2439,2070
2714,2439,2069
2720,2439,2069
2720,2440,2069
2720,2440,2068
2720,2440,2068
2720,2444,2068
2720,2444,2065
2724,2444,2065
2724,2447,2065
2724,2447,2072
2712,2447,2072
2712,2446,2072
2712,2446,2075
2716,2446,2075
2716,2449,2075
2716,2449,2073
2718,2449,2073
2718,2448,2073
2718,2448,2071
2716,2448,2071
2716,2442,2071
2716,2442,2071
2718,2442,2071
2718,2439,2071
2718,2439,2070
2720,2439,2070
2720,2441,2070
2720,2441,2073
2715,2441,2073
2715,2449,2073
2715,2449,2067
2720,2449,2067
2720,2446,2067
2720,2446,2067
2722,2446,2067
2722,2449,2067
2722,2449,2071
2715,2449,2071
2715,2445,2071
2715,2445,2066
2716,2445,2066
2716,2454,2066
2716,2454,2066
2717,2454,2066
2717,2450,2066
2717,2450,2071
2719,2450,2071
2719,2457,2071
2719,2457,2073
2724,2457,2073
2724,2449,2073
2724,2449,2071
2721,2449,2071
2721,2450,2071
2721,2450,2071
2712,2450,2071
2712,2451,2071
2712,2451,2072
2723,2451,2072
2723,2453,2072
2723,2453,2066
2714,2453,2066
2714,2449,2066
2714,2449,2066
2719,2449,2066
2719,2454,2066
2719,2454,2064
2723,2454,2064
2723,2451,2064
2723,2451,2061
2720,2451,2061
2720,2446,2061
2720,2446,2058
2724,2446,2058
2724,2448,2058
2724,2448,2058
2721,2448,2058
2721,2443,2058
2721,2443,2059
2724,2443,2059
2724,2440,2059
2724,2440,2062
2718,2440,2062
2718,2433,2062
2718,2433,2070
2723,2433,2070
2723,2427,2070
2723,2427,2064
2725,2427,2064
2725,2430,2064
2725,2430,2069
2722,2430,2069
2722,2435,2069
2722,2435,2071
2719,2435,2071
2719,2433,2071
2719,2433,2071
2719,2433,2071
2719,2432,2071
2719,2432,2070
2714,2432,2070
2714,2436,2070
2714,2436,2068
2725,2436,2068
2725,2442,2068
2725,2442,2075
2718,2442,2075
2718,2446,2075
2718,2446,2070
2723,2446,2070
2723,2444,2070
2723,2444,2075
2719,2444,2075
2719,2446,2075
2719,2446,2070
2723,2446,2070
2723,2444,2070
2723,2444,2073
2716,2444,2073
2716,2448,2073
2716,2448,2072
2721,2448,2072
2721,2445,2072
2721,2445,2073
2715,2445,2073
2715,2443,2073
2715,2443,2074
2722,2443,2074
2722,2442,2074
2722,2442,2072
2723,2442,2072
2723,2446,2072
2723,2446,2065
2717,2446,2065
2717,2453,2065
2717,2453,2065
2718,2453,2065
2718,2448,2065
2718,2448,2062
2717,2448,2062
2717,2451,2062
2717,2451,2067
2724,2451,2067
2724,2451,2067
2724,2451,2066
2720,2451,2066
2720,2453,2066
2720,2453,2070
2721,2453,2070
2721,2451,2070
2721,2451,2071
2725,2451,2071
2725,2452,2071
2725,2452,2068
2719,2452,2068
2719,2451,2068
2719,2451,2070
2725,2451,2070
2725,2452,2070
2725,2452,2072
2724,2452,2072
2724,2452,2072
2724,2452,2070
2724,2452,2070
2724,2453,2070
2724,2453,2069
2722,2453,2069
2722,2451,2069
2722,2451,2067
2719,2451,2067
2719,2454,2067
2719,2454,2072
2726,2454,2072
2726,2453,2072
2726,2453,2069
2725,2453,2069
2725,2455,2069
2725,2455,2073
2724,2455,2073
2724,2459,2073
2724,2459,2070
2731,2459,2070
2731,2451,2070
2731,2451,2072
2729,2451,2072
2729,2448,2072
2729,2448,2074
2723,2448,2074
2723,2438,2074
2723,2438,2069
2725,2438,2069
2725,2434,2069
2725,2434,2076
2724,2434,2076
2724,2436,2076
2724,2436,2076
2727,2436,2076
2727,2437,2076
2727,2437,2073
2723,2437,2073
2723,2437,2073
2723,2437,2074
2717,2437,2074
2717,2440,2074
2717,2440,2072
2729,2440,2072
2729,2443,2072
2729,2443,2074
2721,2443,2074
2721,2448,2074
2721,2448,2073
2727,2448,2073
2727,2443,2073
2727,2443,2072
2722,2443,2072
2722,2445,2072
2722,2445,2073
2718,2445,2073
2718,2443,2073
2718,2443,2071
2718,2443,2071
2718,2444,2071
2718,2444,2069
2714,2444,2069
2714,2445,2069
2714,2445,2069
2721,2445,2069
2721,2439,2069
2721,2439,2071
2710,2439,2071
2710,2444,2071
2710,2444,2069
2714,2444,2069
2714,2436,2069
2714,2436,2069
2715,2436,2069
2715,2443,2069
2715,2443,2075
2713,2443,2075
2713,2441,2075
2713,2441,2076
2710,2441,2076
2710,2437,2076
2710,2437,2072
2712,2437,2072
2712,2435,2072
2712,2435,2070
2710,2435,2070
2710,2433,2070
2710,2433,2075
2710,2433,2075
2710,2436,2075
2710,2436,2071
2710,2436,2071
2710,2441,2071
2710,2441,2071
2709,2441,2071
2709,2444,2071
2709,2444,2070
2711,2444,2070
2711,2441,2070
2711,2441,2071
2713,2441,2071
2713,2438,2071
2713,2438,2068
2724,2438,2068
2724,2443,2068
2724,2443,2076
2719,2443,2076
2719,2439,2076
2719,2439,2070
2722,2439,2070
2722,2438,2070
2722,2438,2072
2721,2438,2072
2721,2452,2072
2721,2452,2073
2725,2452,2073
2725,2441,2073
2725,2441,2060
2727,2441,2060
2727,2446,2060
2727,2446,2063
2728,2446,2063
2728,2440,2063
2728,2440,2063
2725,2440,2063
2725,2431,2063
2725,2431,2056
2729,2431,2056
2729,2423,2056
2729,2423,2061
2722,2423,2061
2722,2420,2061
2722,2420,2061
2724,2420,2061
2724,2418,2061
2724,2418,2065
2719,2418,2065
2719,2421,2065
2719,2421,2059
2725,2421,2059
2725,2432,2059
2725,2432,2064
2719,2432,2064
2719,2439,2064
2719,2439,2061
2716,2439,2061
2716,2443,2061
2716,2443,2060
2718,2443,2060
2718,2446,2060
2718,2446,2060
2710,2446,2060
2710,2446,2060
2710,2446,2062
2706,2446,2062
2706,2445,2062
2706,2445,2057
2704,2445,2057
2704,2446,2057
2704,2446,2059
2706,2446,2059
2706,2444,2059
2706,2444,2058
2707,2444,2058
2707,2449,2063
2706,2449,2063
2706,2440,2061
2703,2440,2061
2703,2439,2061
2703,2439,2063
2713,2439,2063
2713,2446,2063
2713,2446,2066
2708,2446,2066
2708,2447,2066
2708,2447,2064
2711,2447,2064
2711,2451,2064
2711,2451,2069
2721,2451,2069
2721,2453,2066
2713,2453,2066
2713,2450,2068
2716,2450,2068
2716,2451,2066
2722,2451,2066
2722,2452,2066
2719,2452,2066
2719,2449,2067
2725,2449,2067
2725,2454,2072
2718,2454,2072
2718,2449,2069
2723,2449,2069
2723,2449,2067
2722,2449,2067
2722,2450,2069
2722,2450,2069
2722,2455,2069
2723,2455,2069
2723,2451,2072
2727,2451,2072
2727,2450,2067
2720,2450,2067
2720,2443,2066
2722,2443,2066
2722,2441,2065
2724,2441,2065
2724,2436,2065
2724,2436,2069
2726,2436,2069
2726,2431,2069
2724,2431,2069
2724,2433,2072
2721,2433,2072
2721,2437,2071
2724,2437,2071
2724,2441,2070
2720,2441,2070
2720,2447,2068
2723,2447,2068
2723,2449,2069
2718,2449,2069
2718,2444,2076
2722,2444,2076
2722,2447,2068
2722,2447,2068
2722,2447,2070
2716,2447,2070
2716,2445,2069
2719,2445,2069
2719,2443,2065
2720,2443,2065
2720,2446,2071
2718,2446,2071
2718,2445,2069
2714,2445,2069
2714,2441,2066
2712,2441,2066
2712,2440,2069
2713,2440,2069
2713,2442,2070
2720,2442,2070
2720,2448,2067
2722,2448,2067
2722,2448,2071
2722,2448,2071
2722,2450,2069
2718,2450,2069
2718,2452,2065
2718,2452,2065
2718,2449,2067
2721,2449,2067
2721,2446,2069
2719,2446,2069
2719,2450,2068
2719,2450,2068
2719,2447,2067
2718,2447,2067
2718,2451,2068
2718,2451,2068
2718,2456,2068
2722,2456,2068
2722,2458,2066
2721,2458,2066
2721,2456,2068
2716,2456,2068
2716,2452,2068
2722,2452,2068
2722,2452,2067
2722,2453,2067
2721,2453,2067
2721,2453,2070
2721,2444,2070
2716,2444,2070
2716,2435,2066
2720,2435,2066
2720,2433,2066
2719,2433,2066
2719,2429,2065
2721,2429,2065
2721,2434,2065
2722,2434,2065
2722,2434,2062
2714,2434,2062
2714,2434,2058
2714,2433,2058
2713,2433,2058
2713,2433,2061
2713,2433,2061
2714,2433,2061
2714,2433,2054
2714,2430,2054
2714,2430,2054
2714,2429,2055
2716,2429,2055
2716,2429,2057
2716,2427,2057
2716,2427,2057
2716,2430,2060
2715,2430,2060
2715,2430,2065
2715,2434,2065
2715,2434,2065
2715,2434,2062
2715,2435,2062
2716,2435,2062
2716,2441,2064
2719,2441,2064
2719,2442,2064
2718,2442,2064
2718,2440,2065
2723,2440,2065
2723,2438,2060
2717,2438,2060
2717,2443,2069
2722,2443,2069
2722,2445,2066
2716,2445,2066
2716,2445,2067
2716,2442,2067
2715,2442,2067
2715,2442,2063
2715,2444,2063
2718,2444,2063
2718,2444,2063
2718,2444,2063
2717,2444,2063
2717,2444,2066
2717,2453,2066
2722,2453,2066
2722,2453,2063
2722,2450,2063
2715,2450,2063
2715,2450,2064
2715,2446,2064
2714,2446,2064
2714,2446,2067
2714,2447,2067
2717,2447,2067
2717,2447,2058
2717,2452,2058
2718,2452,2058
2718,2452,2068
2718,2448,2068
2719,2448,2068
2719,2448,2065
2719,2452,2065
2719,2452,2065
2719,2452,2067
2719,2445,2067
2717,2445,2067
2717,2445,2058
2717,2444,2058
2722,2444,2058
2722,2444,2065
2722,2442,2065
2720,2442,2065
2720,2442,2056
2720,2438,2056
2717,2438,2056
2717,2438,2058
2717,2431,2058
2719,2431,2058
2719,2431,2059
2719,2426,2059
2723,2426,2059
2723,2426,2060
2723,2431,2060
2720,2431,2060
2720,2431,2061
2720,2430,2061
2715,2430,2061
2715,2430,2063
2715,2433,2063
2723,2433,2063
2723,2433,2069
2723,2440,2069
2716,2440,2069
2716,2440,2057
2716,2436,2057
2714,2436,2057
2714,2436,2066
2714,2436,2066
2711,2436,2066
2711,2436,2067
2711,2440,2067
2716,2440,2067
2716,2440,2065
2716,2443,2065
2712,2443,2065
2712,2443,2063
2712,2437,2063
2717,2437,2063
2717,2437,2067
2717,2440,2067
2720,2440,2067
2720,2440,2066
2720,2440,2066
2715,2440,2066
2715,2440,2059
2715,2446,2059
2713,2446,2059
2713,2446,2067
2713,2438,2067
2716,2438,2067
2716,2438,2060
2716,2439,2060
2718,2439,2060
2718,2439,2064
2718,2440,2064
2716,2440,2064
2716,2440,2059
2716,2442,2059
2714,2442,2059
2714,2442,2063
2714,2439,2063
2715,2439,2063
2715,2439,2062
2715,2443,2062
2717,2443,2062
2717,2443,2068
2717,2444,2068
2715,2444,2068
2715,2444,2057
2715,2444,2057
2722,2444,2057
2722,2444,2064
2722,2446,2064
2717,2446,2064
2717,2446,2064
2717,2444,2064
2717,2444,2064
2717,2444,2064
2717,2447,2064
2717,2447,2064
2717,2447,2067
2717,2443,2067
2716,2443,2067
2716,2443,2062
2716,2447,2062
2717,2447,2062
2717,2447,2058
2717,2446,2058
2715,2446,2058
2715,2446,2057
2715,2448,2057
2718,2448,2057
2718,2448,2059
2718,2446,2059
2718,2446,2059
2718,2446,2059
2718,2446,2059
2722,2446,2059
2722,2446,2054
2722,2439,2054
2713,2439,2054
2713,2439,2058
2713,2439,2058
2716,2439,2058
2716,2439,2053
2716,2432,2053
2717,2432,2053
2717,2432,2050
2717,2429,2050
2711,2429,2050
2711,2429,2050
2711,2427,2050
2712,2427,2050
2712,2427,2050
2712,2432,2050
2710,2432,2050
2710,2432,2055
2710,2430,2055
2706,2430,2055
2706,2430,2056
2706,2436,2056
2705,2436,2056
2705,2436,2047
2705,2437,2047
2703,2437,2047
2703,2437,2049
2703,2435,2049
2704,2435,2049
2704,2435,2049
2704,2437,2049
2707,2437,2049
2707,2437,2059
2707,2437,2059
2701,2437,2059
2701,2437,2056
2701,2443,2056
2705,2443,2056
2705,2443,2047
2705,2437,2047
2703,2437,2047
2703,2437,2051
2703,2434,2051
2710,2434,2051
2710,2434,2048
2710,2432,2048
2710,2432,2048
2710,2432,2052
2710,2423,2052
2710,2423,2052
2710,2423,2049
2710,2423,2049
2707,2423,2049
2707,2423,2048
2707,2426,2048
2710,2426,2048
2710,2426,2055
2710,2427,2055
2709,2427,2055
2709,2427,2057
2709,2433,2057
2706,2433,2057
2706,2433,2060
2706,2433,2060
2706,2433,2060
2706,2433,2064
2706,2440,2064
2704,2440,2064
2704,2440,2059
2704,2437,2059
2708,2437,2059
2708,2437,2063
2708,2438,2063
2706,2438,2063
2706,2438,2056
2706,2433,2056
2702,2433,2056
2702,2433,2062
2702,2433,2062
2705,2433,2062
2705,2433,2060
2705,2432,2060
2702,2432,2060
2702,2432,2062
2702,2435,2062
2699,2435,2062
2699,2435,2059
2699,2432,2059
2706,2432,2059
2706,2432,2063
2706,2431,2063
2703,2431,2063
2703,2431,2061
2703,2428,2061
2703,2428,2061
2703,2428,2060
2703,2425,2060
2706,2425,2060
2706,2425,2064
2706,2422,2064
2705,2422,2064
2705,2422,2065
2705,2413,2065
2711,2413,2065
2711,2413,2059
2711,2414,2059
2711,2414,2059
2711,2414,2061
2711,2422,2061
2707,2422,2061
2707,2422,2060
2707,2416,2060
2713,2416,2060
2713,2416,2064
2713,2427,2064
2710,2427,2064
2710,2427,2064
2710,2431,2064
2719,2431,2064
2719,2431,2060
2719,2431,2060
2711,2431,2060
2711,2431,2062
2711,2434,2062
2710,2434,2062
2710,2434,2063
2710,2438,2063
2713,2438,2063
2713,2438,2061
2713,2434,2061
2708,2434,2061
2708,2434,2065
2708,2444,2065
2711,2444,2065
2711,2444,2060
2711,2431,2060
2708,2431,2060
2708,2431,2063
2708,2438,2063
2712,2438,2063
2712,2438,2063
2712,2432,2063
2708,2432,2063
2708,2432,2063
2708,2439,2063
2716,2439,2063
2716,2439,2061
2716,2443,2061
2716,2443,2061
2716,2443,2057
2716,2434,2057
2713,2434,2057
2713,2434,2061
2713,2439,2061
2709,2439,2061
2709,2439,2060
2709,2441,2060
2706,2441,2060
2706,2441,2058
2706,2440,2058
2714,2440,2058
2714,2440,2057
2714,2443,2057
2713,2443,2057
2713,2443,2058
2713,2442,2058
2708,2442,2058
2708,2442,2064
2708,2444,2064
2713,2444,2064
2713,2444,2060
2713,2439,2060
2713,2439,2060
2713,2439,2060
2713,2442,2060
2711,2442,2060
2711,2442,2063
2711,2443,2063
2712,2443,2063
2712,2443,2059
2712,2445,2059
2708,2445,2059
2708,2445,2061
2708,2442,2061
2710,2442,2061
2710,2442,2058
2710,2443,2058
2709,2443,2058
2709,2443,2061
2709,2443,2061
2708,2443,2061
2708,2443,2060
2708,2428,2060
2708,2428,2060
2708,2428,2060
2708,2425,2060
2710,2425,2060
2710,2425,2055
2710,2424,2055
2708,2424,2055
2708,2424,2061
2708,2423,2061
2713,2423,2061
2713,2423,2059
2713,2430,2059
2707,2430,2059
2707,2430,2060
2707,2428,2060
2713,2428,2060
2713,2428,2061
2713,2430,2061
2709,2430,2061
2709,2430,2064
2709,2436,2064
2703,2436,2064
2703,2436,2058
2703,2433,2058
2709,2433,2058
2709,2433,2063
2709,2438,2063
2705,2438,2063
2705,2438,2058
2705,2435,2058
2711,2435,2058
2711,2435,2061
2711,2438,2061
2707,2438,2061
2707,2438,2066
2707,2432,2066
2709,2432,2066
2709,2432,2068
2709,2437,2068
2708,2437,2068
2708,2437,2062
2708,2431,2062
2706,2431,2062
2706,2431,2061
2706,2434,2061
2715,2434,2061
2715,2434,2063
2715,2436,2063
2709,2436,2063
2709,2436,2061
2709,2436,2061
2703,2436,2061
2703,2436,2059
2703,2438,2059
2708,2438,2059
2708,2438,2065
2708,2434,2065
2705,2434,2065
2705,2434,2057
2705,2441,2057
2709,2441,2057
2709,2441,2057
2709,2434,2057
2708,2434,2057
2708,2434,2055
2708,2434,2055
2702,2434,2055
2702,2434,2052
2702,2430,2052
2707,2430,2052
2707,2430,2046
2707,2432,2046
2711,2432,2046
2711,2432,2043
2711,2430,2043
2702,2430,2043
2702,2430,2049
2702,2430,2049
2710,2430,2049
2710,2430,2057
2710,2426,2057
2706,2426,2057
2706,2426,2057
2706,2436,2057
2709,2436,2057
2709,2436,2057
2709,2438,2057
2707,2438,2057
2707,2438,2060
2707,2445,2060
2705,2445,2060
2705,2445,2056
2705,2438,2056
2712,2438,2056
2712,2438,2069
2712,2432,2069
2712,2432,2069
2712,2432,2065
2712,2426,2065
2712,2426,2065
2712,2426,2062
2712,2423,2062
2709,2423,2062
2709,2423,2060
2709,2420,2060
2708,2420,2060
2708,2420,2067
2708,2423,2067
2710,2423,2067
2710,2423,2063
2710,2423,2063
2711,2423,2063
2711,2423,2063
2711,2429,2063
2710,2429,2063
2710,2429,2064
2710,2430,2064
2707,2430,2064
2707,2430,2063
2707,2430,2063
2710,2430,2063
2710,2430,2067
2710,2436,2067
2706,2436,2067
2706,2436,2062
2706,2435,2062
2705,2435,2062
2705,2435,2060
2705,2439,2060
2706,2439,2060
2706,2439,2060
2706,2430,2060
2710,2430,2060
2710,2430,2062
2710,2429,2062
2708,2429,2062
2708,2429,2063
2708,2437,2063
2702,2437,2063
2702,2437,2060
2702,2435,2060
2705,2435,2060
2705,2435,2056
2705,2430,2056
2707,2430,2056
2707,2430,2063
2707,2431,2063
2709,2431,2063
2709,2431,2067
2709,2438,2067
2709,2438,2067
2709,2438,2063
2709,2438,2063
2711,2438,2063
2711,2438,2063
2711,2436,2063
2707,2436,2063
2707,2436,2065
2707,2440,2065
2709,2440,2065
2709,2440,2063
2709,2438,2063
2706,2438,2063
2706,2438,2063
2709,2440,2063
2709,2440,2064
2710,2438,2064
2710,2438,2061
2710,2439,2061
2714,2439,2061
2714,2439,2064
2714,2438,2064
2706,2438,2064
2706,2438,2061
2706,2442,2061
2705,2442,2061
2705,2442,2062
2705,2441,2062
2703,2441,2062
2703,2441,2059
2703,2446,2059
2711,2446,2059
2711,2446,2065
2711,2443,2065
2712,2443,2065
2712,2443,2063
2712,2442,2063
2710,2442,2063
2710,2442,2066
2710,2444,2066
2710,2444,2066
2710,2444,2062
2711,2442,2062
2711,2442,2059
2710,2441,2059
2710,2441,2062
2709,2424,2062
2709,2424,2054
2709,2424,2054
2706,2424,2054
2706,2424,2057
2706,2425,2057
2706,2425,2057
2706,2425,2055
2706,2424,2055
2708,2424,2055
2708,2424,2054
2708,2427,2054
2695,2427,2058
2697,2428,2058
2697,2428,2057
2705,2433,2057
2705,2433,2058
2696,2436,2058
2696,2436,2056
2696,2433,2056
2702,2433,2059
2702,2435,2059
2704,2435,2060
2700,2433,2060
2700,2433,2060
2700,2434,2060
2701,2434,2061
2701,2433,2061
2702,2433,2063
2702,2435,2063
2714,2435,2065
2714,2435,2065
2710,2435,2069
2710,2435,2069
2714,2435,2068
2714,2434,2068
2717,2434,2071
2717,2437,2071
2711,2437,2069
2711,2441,2069
2710,2441,2065
2710,2442,2065
2716,2442,2066
2716,2444,2066
2713,2444,2070
2713,2447,2070
2712,2447,2074
2712,2446,2074
2713,2446,2072
2713,2444,2072
2712,2444,2072
2712,2444,2077
2712,2445,2077
2708,2445,2069
2708,2442,2069
2711,2442,2068
2711,2446,2068
2713,2446,2070
2713,2439,2070
2710,2439,2064
2706,2439,2061
2711,2435,2061
2711,2435,2063
2713,2432,2063
2713,2432,2056
2718,2425,2056
2718,2425,2056
2715,2420,2056
2715,2420,2060
2723,2414,2060
2723,2414,2065
2725,2420,2065
2725,2420,2064
2718,2419,2064
2718,2419,2065
2721,2420,2065
2721,2420,2071
2716,2432,2071
2716,2432,2068
2716,2430,2068
2721,2430,2070
2721,2433,2070
2714,2433,2069
2714,2434,2069
2716,2434,2068
2720,2437,2068
2720,2437,2073
2720,2440,2073
2714,2440,2067
2714,2437,2067
2714,2437,2072
2714,2432,2072
2709,2432,2067
2709,2439,2067
2715,2439,2069
2711,2440,2071
2711,2439,2073
2713,2439,2072
2711,2438,2072
2716,2437,2067
2715,2442,2069
2713,2439,2069
2711,2438,2070
2704,2440,2072
2707,2440,2070
2701,2437,2070
2701,2439,2066
2695,2440,2066
2695,2440,2069
2700,2436,2067
2696,2436,2069
2702,2436,2069
2702,2436,2070
2704,2433,2069
2703,2432,2072
2702,2424,2067
2700,2421,2067
2700,2421,2073
2706,2417,2070
2707,2417,2078
2704,2417,2073
2706,2421,2072
2705,2422,2074
2703,2424,2076
2708,2427,2074
2706,2432,2073
2707,2427,2066
2709,2437,2074
2709,2432,2070
2706,2431,2068
2713,2437,2075
2705,2436,2072
2707,2433,2072
2713,2439,2068
2713,2440,2071
2710,2439,2075
2715,2448,2074
2714,2446,2071
2714,2446,2069
2717,2448,2069
2717,2449,2073
2718,2449,2071
2716,2449,2070
2716,2446,2070
2715,2445,2074
2716,2447,2073
2715,2447,2071
2715,2448,2071
2716,2448,2067
2721,2448,2068
2721,2449,2068
2714,2449,2069
2714,2439,2069
2713,2439,2065
2713,2437,2065
2718,2437,2067
2718,2424,2067
2716,2424,2056
2716,2426,2056
2716,2426,2054
2722,2421,2054
2718,2421,2060
2718,2426,2060
2718,2426,2060
2715,2422,2060
2715,2422,2067
2717,2425,2067
2717,2425,2067
2711,2425,2067
2711,2425,2068
2711,2428,2068
2711,2428,2071
2715,2437,2071
2715,2437,2076
2715,2436,2076
2715,2436,2074
2711,2441,2074
2711,2441,2070
2713,2443,2070
2713,2443,2074
2717,2442,2074
2711,2441,2072
2714,2441,2073
2720,2442,2070
2716,2444,2073
2717,2444,2078
2717,2441,2078
2712,2443,2072
2715,2443,2077
2715,2444,2077
2714,2444,2071
2714,2448,2071
2714,2448,2074
2714,2445,2074
2710,2445,2072
2710,2447,2072
2712,2447,2071
2712,2448,2071
2722,2448,2071
2722,2444,2071
2715,2444,2069
2715,2447,2069
2717,2447,2064
2717,2448,2064
2718,2448,2072
2718,2449,2072
2718,2449,2068
2718,2449,2068
2714,2449,2064
2714,2449,2064
2710,2449,2064
2710,2446,2064
2709,2446,2068
2709,2449,2068
2707,2449,2067
2707,2443,2067
2711,2443,2068
2711,2434,2068
2708,2434,2073
2708,2429,2073
2713,2429,2070
2713,2426,2070
2717,2426,2075
2717,2433,2075
2710,2433,2075
2710,2437,2075
2715,2437,2073
2715,2438,2073
2715,2438,2076
2715,2438,2076
2715,2441,2076
2715,2441,2076
2716,2439,2076
2716,2439,2069
2720,2447,2069
2720,2447,2073
2716,2443,2073
2716,2443,2075
2715,2441,2075
2715,2441,2075
2718,2443,2075
2718,2443,2075
2713,2442,2075
2713,2442,2077
2724,2443,2077
2724,2443,2073
2721,2443,2073
2721,2443,2076
2723,2437,2076
2723,2437,2080
2722,2443,2080
2722,2443,2076
2719,2444,2076
2719,2444,2080
2720,2447,2080
2720,2447,2078
2719,2445,2078
2719,2445,2076
2724,2445,2076
2724,2448,2076
2724,2448,2080
2723,2447,2080
2723,2447,2078
2724,2446,2078
2724,2446,2077
2718,2454,2077
2718,2454,2076
2723,2453,2076
2723,2453,2078
2722,2453,2078
2722,2453,2078
2722,2453,2079
2726,2453,2079
2726,2452,2079
2726,2452,2076
2726,2452,2076
2726,2453,2076
2726,2453,2078
2720,2455,2078
2720,2455,2080
2723,2457,2080
2723,2457,2077
2724,2451,2077
2724,2451,2079
2722,2451,2079
2722,2451,2079
2722,2451,2078
2724,2451,2078
2724,2443,2078
2724,2443,2078
2724,2443,2078
2724,2440,2078
2724,2440,2079
2725,2440,2079
2725,2432,2079
2725,2432,2075
2725,2432,2075
2725,2430,2075
2725,2430,2076
2724,2430,2076
2724,2429,2076
2724,2429,2081
2723,2429,2081
2723,2435,2081
2723,2435,2073
2724,2435,2073
2724,2435,2073
2724,2435,2075
2721,2435,2075
2721,2438,2075
2721,2438,2070
2724,2438,2070
2724,2440,2070
2724,2440,2073
2719,2440,2073
2719,2426,2073
2719,2426,2070
2720,2426,2070
2720,2426,2070
2720,2426,2070
2718,2426,2070
2718,2431,2070
2718,2431,2074
2723,2431,2074
2723,2430,2074
2723,2430,2076
2719,2430,2076
2719,2438,2076
2719,2438,2076
2725,2438,2076
2725,2441,2076
2725,2441,2075
2724,2441,2075
2724,2442,2075
2724,2442,2080
2720,2442,2080
2720,2440,2080
2720,2440,2082
2720,2440,2082
2720,2438,2082
2720,2438,2073
2724,2438,2073
2724,2442,2073
2724,2442,2082
2725,2442,2082
2725,2444,2082
2725,2444,2081
2719,2444,2081
2719,2448,2081
2719,2448,2083
2723,2448,2083
2723,2450,2083
2723,2450,2081
2723,2450,2081
2723,2447,2081
2723,2447,2075
2729,2447,2075
2729,2446,2075
2729,2446,2077
2727,2446,2077
2727,2446,2077
2727,2446,2083
2719,2446,2083
2719,2452,2083
2719,2452,2082
2723,2452,2082
2723,2448,2082
2723,2448,2079
2721,2448,2079
2721,2447,2079
2721,2447,2079
2725,2447,2079
2725,2451,2079
2725,2451,2079
2718,2451,2079
2718,2451,2079
2718,2451,2084
2724,2451,2084
2724,2447,2084
2724,2447,2081
2719,2447,2081
2719,2451,2081
2719,2451,2078
2723,2451,2078
2723,2450,2078
2723,2450,2077
2717,2450,2077
2717,2443,2077
2717,2443,2078
2720,2443,2078
2720,2438,2078
2720,2438,2083
2724,2438,2083
2724,2432,2083
2724,2432,2078
2723,2432,2078
2723,2428,2078
2723,2428,2081
2718,2428,2081
2718,2431,2081
2718,2431,2080
2718,2431,2080
2718,2434,2080
2718,2434,2083
2721,2434,2083
2721,2440,2083
2721,2440,2081
2718,2440,2081
2718,2434,2081
2718,2434,2080
2724,2434,2080
2724,2439,2080
2724,2439,2086
2714,2439,2086
2714,2442,2086
2714,2442,2080
2724,2442,2080
2724,2450,2080
2724,2450,2080
2723,2450,2080
2723,2441,2080
2723,2441,2082
2715,2441,2082
2715,2445,2082
2715,2445,2081
2716,2445,2081
2716,2445,2081
2716,2445,2079
2717,2445,2079
2717,2446,2079
2717,2446,2085
2723,2446,2085
2723,2440,2085
2723,2440,2082
2720,2440,2082
2720,2443,2082
2720,2443,2082
2718,2443,2082
2718,2443,2082
2718,2443,2080
2724,2443,2080
2724,2442,2080
2724,2442,2085
2712,2442,2085
2712,2444,2085
2712,2444,2077
2720,2444,2077
2720,2445,2077
2720,2445,2078
2718,2445,2078
2718,2452,2078
2718,2452,2082
2716,2452,2082
2716,2454,2082
2716,2454,2085
2721,2454,2085
2721,2451,2085
2721,2451,2080
2721,2451,2080
2721,2448,2080
2721,2448,2087
2719,2448,2087
2719,2447,2087
2719,2447,2076
2718,2447,2076
2718,2451,2076
2718,2451,2079
2707,2451,2079
2707,2454,2079
2707,2454,2083
2714,2454,2083
2714,2446,2083
2714,2446,2079
2707,2446,2079
2707,2449,2079
2707,2449,2077
2711,2449,2077
2711,2449,2077
2711,2449,2084
2709,2449,2084
2709,2456,2084
2709,2456,2086
2708,2456,2086
2708,2440,2086
2708,2440,2076
2709,2440,2076
2709,2432,2076
2709,2432,2084
2709,2432,2084
2709,2427,2084
2709,2427,2078
2706,2427,2078
2706,2419,2078
2706,2419,2079
2706,2419,2079
2706,2417,2079
2706,2417,2087
2709,2417,2087
2709,2420,2087
2709,2420,2077
2709,2420,2077
2709,2417,2077
2709,2417,2083
2709,2417,2083
2709,2428,2083
2709,2428,2086
2705,2428,2086
2705,2430,2086
2705,2430,2083
2712,2430,2083
2712,2432,2083
2712,2432,2083
2711,2432,2083
2711,2427,2083
2711,2427,2081
2718,2427,2081
2718,2434,2081
2718,2434,2077
2716,2434,2077
2716,2437,2077
2716,2437,2071
2719,2437,2071
2719,2442,2071
2719,2442,2072
2713,2442,2072
2713,2429,2072
2713,2429,2073
2717,2429,2073
2717,2432,2073
2717,2432,2071
2714,2432,2071
2714,2432,2071
2714,2432,2068
2719,2432,2068
2719,2433,2068
2719,2433,2068
2714,2433,2068
2714,2436,2068
2714,2436,2073
2716,2436,2073
2716,2442,2073
2716,2442,2074
2713,2442,2074
2713,2445,2074
2713,2445,2074
2710,2445,2074
2710,2447,2074
2710,2447,2072
2713,2447,2072
2713,2450,2072
2713,2450,2067
2707,2450,2067
2707,2449,2067
2707,2449,2074
2703,2449,2074
2703,2452,2074
2703,2452,2070
2704,2452,2070
2704,2445,2070
2704,2445,2063
2698,2445,2063
2698,2447,2063
2698,2447,2070
2706,2447,2070
2706,2450,2070
2706,2450,2075
2703,2450,2075
2703,2450,2075
2703,2450,2078
2710,2450,2078
2710,2449,2078
2710,2449,2075
2706,2449,2075
2706,2447,2075
2706,2447,2078
2712,2447,2078
2712,2455,2078
2712,2455,2073
2711,2455,2073
2711,2460,2073
2711,2460,2083
2710,2460,2083
2710,2452,2083
2710,2452,2078
2716,2452,2078
2716,2448,2078
2716,2448,2077
2716,2448,2077
2716,2442,2077
2716,2442,2076
2714,2442,2076
2714,2436,2076
2714,2436,2076
2724,2436,2076
2724,2431,2076
2724,2431,2082
2719,2431,2082
2719,2429,2082
2719,2429,2080
2719,2429,2080
2719,2431,2080
2719,2431,2078
2717,2431,2078
2717,2437,2078
2717,2437,2085
2721,2437,2085
2721,2439,2085
2721,2439,2080
2717,2439,2080
2717,2443,2080
2717,2443,2084
2716,2443,2084
2716,2445,2084
2716,2445,2082
2718,2445,2082
2718,2440,2082
2718,2440,2078
2717,2440,2078
2717,2447,2078
2717,2447,2079
2718,2447,2079
2718,2445,2079
2718,2445,2078
2720,2445,2078
2720,2444,2078
2720,2444,2075
2715,2444,2075
2715,2445,2075
2715,2445,2079
2713,2445,2079
2713,2439,2079
2713,2439,2077
2718,2439,2077
2718,2442,2077
2718,2442,2080
2721,2442,2080
2721,2441,2080
2721,2441,2082
2713,2441,2082
2713,2444,2082
2713,2444,2080
2718,2444,2080
2718,2447,2080
2718,2447,2079
2717,2447,2079
2717,2444,2079
2717,2444,2081
2713,2444,2081
2713,2448,2081
2713,2448,2077
2719,2448,2077
2719,2448,2077
2719,2448,2083
2713,2448,2083
2713,2448,2083
2713,2448,2084
2717,2448,2084
2717,2448,2084
2717,2448,2079
2715,2448,2079
2715,2448,2079
2715,2448,2078
2717,2448,2078
2717,2453,2078
2717,2453,2078
2718,2453,2078
2718,2446,2078
2718,2446,2081
2715,2446,2081
2715,2448,2081
2715,2448,2079
2716,2448,2079
2716,2446,2079
2716,2446,2078
2718,2446,2078
2718,2449,2078
2718,2449,2084
2712,2449,2084
2712,2454,2084
2712,2454,2084
2717,2454,2084
2717,2451,2084
2717,2451,2079
2709,2451,2079
2709,2452,2079
2709,2452,2080
2721,2452,2080
2721,2447,2080
2721,2447,2075
2717,2447,2075
2717,2435,2075
2717,2435,2079
2716,2435,2079
2716,2438,2079
2716,2438,2077
2716,2438,2077
2716,2428,2077
2716,2428,2073
2719,2428,2073
2719,2429,2073
2719,2429,2080
2718,2429,2080
2718,2435,2080
2718,2435,2076
2711,2435,2076
2711,2436,2076
2711,2436,2082
2714,2436,2082
2714,2440,2082
2714,2440,2079
2717,2440,2079
2717,2435,2079
2717,2435,2075
2713,2435,2075
2713,2441,2075
2713,2441,2077
2710,2441,2077
2710,2441,2077
2710,2441,2077
2716,2441,2077
2716,2440,2077
2716,2440,2077
2713,2440,2077
2713,2441,2077
2713,2441,2073
2714,2441,2073
2714,2443,2073
2714,2443,2073
2712,2443,2073
2712,2438,2073
2712,2438,2069
2708,2438,2069
2708,2437,2069
2708,2437,2069
2713,2437,2069
2713,2433,2069
2713,2433,2062
2713,2433,2062
2713,2426,2062
2713,2426,2067
2709,2426,2067
2709,2425,2067
2709,2425,2067
2710,2425,2067
2710,2434,2067
2710,2434,2070
2707,2434,2070
2707,2437,2070
2707,2437,2072
2708,2437,2072
2708,2442,2072
2708,2442,2077
2708,2442,2077
2708,2442,2077
2708,2442,2075
2707,2442,2075
2707,2443,2075
2707,2443,2075
2711,2443,2075
2711,2442,2075
2711,2442,2075
2712,2442,2075
2712,2442,2075
2712,2442,2077
2715,2442,2077
2715,2443,2077
2715,2443,2076
2711,2443,2076
2711,2450,2076
2711,2450,2073
2713,2450,2073
2713,2448,2080
2711,2448,2080
2711,2448,2075
2713,2448,2075
2713,2448,2079
2715,2448,2079
2715,2449,2078
2714,2449,2078
2714,2444,2074
2716,2444,2074
2716,2438,2075
2716,2438,2075
2716,2431,2077
2716,2431,2077
2716,2432,2072
2720,2432,2072
2720,2432,2077
2715,2432,2077
2715,2435,2077
2721,2435,2077
2721,2437,2076
2713,2437,2076
2713,2435,2075
2712,2435,2075
2712,2438,2075
2712,2438,2078
2712,2438,2078
2712,2442,2078
2712,2442,2081
2714,2442,2081
2714,2444,2077
2721,2444,2077
2721,2449,2080
2718,2449,2080
2718,2439,2074
2720,2439,2074
2720,2442,2074
2719,2442,2074
2719,2444,2081
2714,2444,2081
2714,2439,2072
2717,2439,2072
2717,2439,2075
2712,2439,2075
2712,2441,2077
2710,2441,2077
2710,2444,2077
2715,2444,2077
2715,2444,2074
2712,2444,2074
2712,2439,2076
2715,2439,2076
2715,2441,2081
2716,2441,2081
2716,2440,2081
2716,2440,2076
2711,2440,2076
2711,2442,2072
2714,2442,2072
2714,2445,2074
2713,2445,2074
2713,2443,2076
2714,2443,2076
2714,2447,2075
2713,2447,2075
2713,2447,2076
2712,2447,2076
2712,2445,2079
2717,2445,2079
2717,2445,2074
2714,2445,2074
2714,2442,2069
2707,2442,2069
2707,2435,2071
2708,2435,2071
2708,2430,2072
2708,2430,2072
2708,2428,2073
2706,2428,2073
2706,2423,2073
2708,2423,2073
2708,2421,2076
2704,2421,2076
2704,2428,2076
2701,2428,2076
2701,2432,2074
2703,2432,2074
2703,2432,2075
2705,2432,2075
2705,2438,2075
2706,2438,2075
2706,2436,2073
2709,2436,2073
2709,2441,2074
2707,2441,2074
2707,2442,2076
2705,2442,2076
2705,2436,2074
2707,2436,2074
2707,2433,2078
2701,2433,2078
2701,2431,2072
2699,2431,2072
2699,2435,2069
2690,2435,2069
2690,2433,2065
2694,2433,2065
2694,2434,2062
2691,2434,2062
2691,2442,2072
2688,2442,2072
2688,2441,2064
2685,2441,2064
2685,2440,2059
2685,2440,2059
2685,2437,2065
2683,2437,2065
2683,2437,2061
2683,2437,2061
2684,2437,2061
2684,2437,2055
2684,2428,2055
2687,2428,2055
2687,2428,2059
2687,2420,2059
2684,2420,2059
2684,2420,2065
2684,2420,2065
2684,2420,2064
2682,2420,2064
2682,2420,2067
2684,2420,2067
2684,2420,2070
2684,2422,2070
2687,2422,2070
2687,2422,2072
2687,2427,2072
2685,2427,2072
2685,2427,2073
2685,2418,2073
2688,2418,2073
2688,2411,2070
2696,2411,2070
2696,2410,2071
2696,2410,2071
2696,2410,2069
2696,2408,2069
2695,2408,2069
2695,2408,2070
2695,2405,2070
2692,2405,2070
2692,2405,2075
2692,2413,2075
2692,2413,2075
2692,2413,2074
2692,2413,2074
2693,2413,2074
2693,2413,2069
2693,2415,2069
2692,2415,2069
2692,2415,2073
2692,2420,2073
2694,2420,2073
2694,2420,2072
2694,2430,2072
2700,2430,2072
2700,2430,2071
2700,2423,2071
2691,2423,2071
2691,2423,2073
2691,2431,2073
2703,2431,2073
2703,2431,2074
2703,2433,2074
2701,2433,2074
2701,2433,2066
2701,2437,2066
2701,2437,2066
2701,2437,2069
2701,2433,2069
2697,2433,2069
2697,2433,2074
2697,2428,2074
2697,2428,2074
2697,2428,2071
2697,2428,2071
2697,2428,2071
2697,2428,2066
2697,2432,2066
2696,2432,2066
2696,2432,2069
2696,2430,2069
2695,2430,2069
2695,2430,2070
2695,2433,2070
2693,2433,2070
2693,2433,2070
2693,2430,2070
2695,2430,2070
2695,2430,2068
2695,2434,2068
2696,2434,2068
2696,2434,2075
2696,2436,2075
2695,2436,2075
2695,2436,2074
2695,2435,2074
2690,2435,2074
2690,2435,2071
2690,2434,2071
2694,2434,2071
2694,2434,2073
2694,2436,2073
2700,2436,2073
2700,2436,2076
2700,2441,2076
2691,2441,2076
2691,2441,2070
2691,2438,2070
2691,2438,2070
2691,2438,2070
2691,2438,2070
2694,2438,2070
2694,2438,2070
2694,2439,2070
2693,2439,2070
2693,2439,2071
2693,2440,2071
2690,2440,2071
2690,2440,2070
2690,2437,2070
2696,2437,2070
2696,2437,2070
2696,2436,2070
2694,2436,2070
2694,2436,2067
2694,2431,2067
2696,2431,2067
2696,2431,2065
2696,2428,2065
2689,2428,2065
2689,2428,2068
2689,2421,2068
2694,2421,2068
2694,2421,2071
2694,2419,2071
2697,2419,2071
2697,2419,2065
2697,2418,2065
2691,2418,2065
2691,2418,2067
2691,2417,2067
2693,2417,2067
2693,2417,2071
2693,2426,2071
2688,2426,2071
2688,2426,2066
2688,2421,2066
2689,2421,2066
2689,2421,2068
2689,2426,2068
2683,2426,2068
2683,2426,2068
2683,2426,2068
2689,2426,2068
2689,2426,2069
2689,2427,2069
2689,2427,2069
2689,2427,2069
2689,2427,2069
2688,2427,2069
2688,2427,2067
2688,2430,2067
2678,2430,2067
2678,2430,2069
2678,2428,2069
2687,2428,2069
2687,2428,2070
2687,2428,2070
2689,2428,2070
2689,2428,2072
2689,2425,2072
2689,2425,2072
2689,2425,2065
2689,2431,2065
2688,2431,2065
2688,2431,2067
2688,2429,2067
2686,2429,2067
2686,2429,2065
2686,2430,2065
2692,2430,2065
2692,2430,2067
2692,2430,2067
2687,2430,2067
2687,2430,2072
2687,2430,2072
2685,2430,2072
2685,2430,2064
2685,2429,2064
2681,2429,2064
2681,2429,2066
2681,2428,2066
2688,2428,2066
2688,2428,2070
2688,2437,2070
2682,2437,2070
2682,2437,2065
2682,2437,2065
2685,2437,2065
2685,2437,2066
2685,2438,2066
2690,2438,2066
2690,2438,2068
2690,2435,2068
2689,2435,2068
2689,2435,2066
2689,2442,2066
2690,2442,2066
2690,2442,2064
2690,2435,2064
2692,2435,2064
2692,2435,2061
2692,2432,2061
2688,2432,2061
2688,2432,2055
2688,2429,2055
2689,2429,2055
2689,2429,2054
2689,2425,2054
2687,2425,2054
2687,2425,2054
2687,2427,2054
2687,2427,2054
2687,2427,2051
2687,2426,2051
2688,2426,2051
2688,2426,2056
2688,2428,2056
2694,2428,2056
2694,2428,2061
2694,2428,2061
2690,2428,2061
2690,2428,2058
2690,2417,2058
2690,2417,2058
2690,2417,2058
2690,2415,2058
2694,2415,2058
2694,2415,2062
2694,2410,2062
2696,2410,2062
2696,2410,2068
2696,2411,2068
2688,2411,2068
2688,2411,2069
2688,2425,2069
2699,2425,2069
2699,2425,2070
2699,2422,2070
2689,2422,2070
2689,2422,2075
2689,2424,2075
2691,2424,2075
2691,2424,2067
2691,2426,2067
2690,2426,2067
2690,2426,2072
2690,2422,2072
2690,2422,2072
2690,2422,2070
2690,2432,2070
2694,2432,2070
2694,2432,2071
2694,2431,2071
2687,2431,2071
2687,2431,2066
2687,2432,2066
2689,2432,2066
2689,2432,2068
2689,2429,2068
2690,2429,2068
2690,2429,2071
2690,2431,2071
2689,2431,2071
2689,2431,2066
2689,2430,2066
2687,2430,2066
2687,2430,2066
2687,2433,2066
2689,2433,2066
2689,2433,2067
2689,2427,2067
2687,2427,2067
2687,2427,2069
2687,2433,2069
2690,2433,2069
2690,2433,2072
2690,2430,2072
2690,2430,2072
2690,2430,2069
2690,2433,2069
2688,2433,2069
2688,2433,2070
2688,2435,2070
2692,2435,2070
2692,2435,2066
2692,2440,2066
2687,2440,2066
2687,2440,2067
2687,2432,2067
2687,2432,2067
2687,2432,2068
2687,2440,2068
2684,2440,2068
2684,2440,2068
2684,2440,2068
2691,2440,2068
2691,2440,2066
2691,2439,2066
2685,2439,2066
2685,2439,2070
2685,2440,2070
2693,2440,2070
2693,2440,2072
2693,2442,2072
2690,2442,2072
2690,2442,2072
2690,2441,2072
2689,2441,2072
2689,2441,2068
2689,2441,2068
2689,2441,2068
2689,2441,2073
2689,2437,2073
2685,2437,2073
2685,2437,2066
2685,2442,2066
2695,2442,2066
2695,2442,2071
2695,2436,2071
2689,2436,2071
2689,2436,2065
2689,2444,2065
2698,2444,2065
2698,2444,2069
2698,2443,2069
2689,2443,2069
2689,2443,2065
2689,2437,2065
2695,2437,2065
2695,2437,2062
2695,2425,2062
2687,2425,2062
2687,2425,2066
2687,2424,2066
2695,2424,2066
2695,2424,2069
2695,2417,2069
2697,2417,2069
2697,2417,2066
2697,2423,2066
2694,2423,2066
2694,2423,2065
2694,2423,2065
2690,2423,2065
2690,2423,2064
2690,2423,2064
2689,2423,2064
2689,2423,2055
2689,2424,2055
2687,2424,2055
2687,2424,2061
2687,2428,2061
2681,2428,2061
2681,2428,2061
2681,2431,2061
2683,2431,2061
2683,2431,2064
2683,2430,2064
2684,2430,2064
2684,2430,2055
2684,2429,2055
2676,2429,2055
2676,2429,2056
2676,2433,2056
2674,2433,2056
2674,2433,2058
2674,2433,2058
2680,2433,2058
2680,2433,2061
2680,2433,2061
2677,2433,2061
2677,2433,2056
2677,2434,2056
2683,2434,2056
2683,2434,2064
2683,2435,2064
2683,2435,2064
2683,2435,2066
2683,2433,2066
2684,2433,2066
2684,2433,2066
2684,2433,2066
2681,2433,2066
2681,2433,2071
2681,2440,2071
2690,2440,2071
2690,2440,2070
2690,2439,2070
2686,2439,2070
2686,2439,2067
2686,2439,2067
2688,2439,2067
2688,2439,2066
2688,2432,2066
2693,2432,2065
2693,2435,2065
2691,2435,2065
2691,2435,2061
2691,2442,2061
2694,2442,2061
2694,2442,2069
2694,2440,2069
2690,2440,2069
2690,2440,2073
2690,2440,2073
2688,2440,2073
2688,2440,2069
2688,2440,2069
2692,2440,2072
2692,2440,2072
2691,2440,2072
2691,2440,2061
2691,2437,2061
2695,2437,2061
2695,2437,2060
2695,2441,2060
2691,2441,2060
2691,2441,2060
2691,2435,2060
2693,2435,2062
2693,2427,2062
2694,2427,2062
2694,2427,2059
2694,2428,2059
2693,2428,2059
2693,2428,2057
2693,2430,2057
2699,2430,2057
2699,2430,2063
2699,2433,2063
2691,2433,2063
2691,2433,2070
2691,2434,2070
2691,2434,2070
2691,2434,2063
2691,2426,2063
2695,2426,2063
2695,2425,2063
2692,2425,2072
2692,2423,2072
2696,2423,2072
2696,2423,2067
2696,2423,2067
2692,2423,2067
2692,2423,2071
2692,2425,2071
2694,2425,2071
2694,2425,2072
2694,2426,2072
2693,2426,2072
2693,2427,2072
2688,2427,2073
2688,2435,2073
2699,2435,2072
2699,2433,2072
2689,2433,2074
2689,2437,2074
2697,2437,2070
2697,2433,2070
2692,2433,2072
2692,2437,2072
2687,2437,2074
2687,2437,2074
2678,2437,2064
2678,2435,2064
2688,2435,2070
2688,2436,2070
2686,2436,2075
2686,2434,2075
2686,2434,2071
2686,2432,2071
2683,2432,2070
2683,2428,2070
2684,2428,2074
2684,2426,2074
2687,2426,2074
2687,2432,2074
2682,2432,2073
2682,2430,2073
2689,2430,2070
2689,2432,2070
2677,2432,2073
2677,2426,2073
2684,2426,2073
2684,2426,2082
2684,2435,2082
2677,2435,2076
2677,2435,2076
2679,2435,2071
2679,2440,2071
2686,2440,2073
2686,2433,2073
2685,2433,2073
2685,2433,2073
2685,2433,2073
2690,2433,2070
2690,2437,2070
2691,2437,2075
2691,2433,2075
2693,2433,2069
2693,2438,2069
2695,2438,2073
2695,2438,2073
2696,2438,2075
2696,2441,2075
2702,2441,2071
2702,2446,2071
2698,2446,2077
2698,2449,2077
2695,2449,2073
2695,2449,2073
2697,2449,2073
2697,2437,2073
2696,2437,2073
2696,2437,2075
2696,2430,2075
2698,2430,2075
2698,2428,2075
2699,2428,2074
2699,2431,2074
2704,2431,2075
2704,2427,2075
2696,2427,2076
2696,2430,2076
2697,2430,2079
2697,2428,2079
2692,2428,2074
2692,2437,2074
2694,2437,2079
2694,2434,2079
2695,2434,2079
2695,2435,2079
2696,2435,2077
2696,2437,2077
2696,2437,2075
2696,2442,2075
2698,2442,2076
2698,2439,2076
2698,2439,2077
2698,2442,2077
2697,2442,2073
2697,2440,2073
2693,2440,2074
2693,2440,2074
2694,2440,2079
2694,2440,2079
2700,2440,2076
2700,2440,2076
2697,2440,2077
2697,2439,2077
2695,2439,2080
2695,2443,2080
2696,2443,2082
2696,2445,2082
2699,2445,2074
2699,2442,2074
2700,2442,2076
2700,2445,2076
2701,2445,2075
2701,2445,2075
2700,2445,2080
2700,2444,2080
2703,2444,2080
2703,2442,2080
2699,2442,2076
2699,2444,2076
2699,2444,2071
2699,2438,2071
2699,2438,2071
2699,2439,2071
2697,2439,2067
2697,2446,2067
2698,2446,2062
2698,2443,2062
2698,2443,2063
2698,2438,2063
2695,2438,2063
2695,2439,2063
2699,2439,2066
2699,2443,2066
2699,2443,2072
2700,2443,2072
2700,2441,2072
2699,2441,2069
2699,2445,2069
2695,2445,2075
2695,2434,2075
2696,2434,2071
2696,2432,2071
2698,2432,2073
2698,2432,2073
2695,2432,2072
2695,2433,2072
2698,2433,2076
2698,2434,2076
2690,2434,2077
2690,2437,2077
2695,2437,2075
2695,2441,2075
2694,2441,2080
2694,2443,2080
2704,2443,2081
2704,2447,2081
2698,2447,2079
2698,2440,2079
2700,2440,2082
2700,2445,2082
2701,2445,2091
2701,2443,2091
2703,2443,2083
2703,2445,2083
2702,2445,2083
2702,2444,2083
2695,2444,2082
2695,2441,2082
2699,2441,2079
2699,2442,2079
2698,2442,2075
2698,2445,2075
2698,2445,2076
2698,2446,2076
2697,2446,2081
2697,2448,2081
2698,2448,2080
2698,2453,2081
2698,2453,2081
2698,2452,2081
2702,2452,2081
2702,2453,2078
2704,2453,2078
2704,2452,2080
2703,2452,2080
2703,2454,2079
2699,2454,2079
2699,2452,2077
2701,2452,2077
2701,2451,2075
2698,2451,2075
2698,2449,2075
2698,2449,2075
2698,2452,2068
2695,2452,2068
2695,2455,2074
2695,2455,2074
2695,2452,2069
2691,2452,2069
2691,2456,2070
2691,2456,2070
2691,2454,2068
2687,2454,2068
2687,2452,2071
2685,2452,2071
2685,2441,2069
2690,2441,2069
2690,2440,2071
2689,2440,2071
2689,2426,2075
2693,2426,2075
2693,2428,2076
2702,2428,2076
2702,2432,2076
2701,2432,2076
2701,2436,2080
2700,2436,2080
2700,2447,2080
2706,2447,2080
2706,2447,2083
2708,2447,2083
2708,2445,2083
2708,2445,2083
2708,2456,2085
2707,2456,2085
2707,2456,2080
2708,2456,2080
2705,2450,2080
2705,2448,2077
2704,2448,2077
2704,2449,2079
2702,2449,2079
2702,2446,2079
2702,2446,2079
2702,2446,2078
2700,2446,2078
2700,2450,2079
2702,2450,2079
2702,2448,2077
2702,2448,2077
2702,2450,2076
2704,2450,2076
2704,2451,2084
2701,2451,2084
2701,2448,2086
2703,2448,2086
2703,2450,2079
2703,2450,2079
2703,2457,2081
2705,2457,2081
2705,2450,2082
2705,2450,2082
2705,2455,2080
2703,2455,2080
2703,2457,2083
2705,2457,2083
2705,2454,2080
2706,2454,2080
2706,2450,2080
2704,2450,2080
2704,2461,2089
2696,2461,2089
2696,2454,2087
2697,2454,2087
2697,2462,2081
2704,2462,2081
2704,2452,2083
2703,2452,2083
2703,2452,2080
2708,2450,2080
2708,2450,2077
2707,2440,2077
2707,2440,2077
2709,2435,2077
2709,2426,2075
2711,2426,2075
2711,2428,2081
2708,2428,2081
2708,2428,2087
2714,2424,2087
2714,2424,2087
2712,2432,2087
2712,2432,2089
2709,2439,2089
2709,2439,2082
2706,2445,2082
2706,2445,2083
2703,2440,2083
2703,2440,2088
2704,2442,2088
2704,2442,2085
2706,2450,2085
2706,2450,2082
2707,2448,2082
2707,2448,2081
2704,2445,2081
2704,2445,2085
2708,2446,2085
2708,2446,2091
2707,2451,2091
2707,2451,2084
2706,2447,2084
2706,2447,2084
2708,2459,2084
2708,2459,2085
2705,2441,2085
2705,2441,2089
2705,2459,2089
2706,2459,2089
2706,2459,2085
2706,2451,2085
2706,2451,2084
2706,2449,2084
2703,2449,2084
2703,2449,2086
2707,2454,2086
2707,2454,2081
2706,2452,2081
2706,2452,2080
2705,2452,2080
2705,2452,2082
2703,2454,2082
2703,2454,2081
2704,2455,2081
2704,2455,2082
2699,2453,2082
2699,2453,2082
2703,2456,2082
2703,2456,2081
2707,2453,2081
2707,2453,2085
2708,2455,2085
2708,2455,2084
2706,2456,2084
2706,2456,2084
2714,2453,2084
2714,2453,2082
2714,2451,2082
2714,2451,2079
2710,2453,2079
2710,2453,2078
2704,2446,2078
2704,2446,2078
2706,2444,2078
2706,2444,2084
2703,2431,2084
2703,2431,2082
2702,2432,2082
2702,2432,2086
2698,2432,2086
2698,2432,2088
2695,2433,2088
2695,2433,2089
2696,2433,2089
2696,2433,2081
2694,2436,2081
2694,2436,2082
2697,2441,2082
2697,2441,2079
2692,2443,2079
2692,2443,2079
2695,2438,2079
2695,2438,2075
2694,2434,2075
2694,2434,2085
2689,2435,2085
2689,2435,2081
2694,2435,2081
2694,2435,2084
2696,2432,2084
2696,2432,2080
2698,2436,2080
2698,2436,2085
2701,2436,2085
2701,2436,2089
2696,2437,2089
2696,2437,2082
2703,2441,2082
2703,2441,2087
2702,2441,2087
2702,2441,2081
2702,2443,2081
2702,2443,2082
2702,2443,2082
2702,2443,2090
2703,2449,2090
2703,2449,2089
2702,2449,2089
2702,2449,2086
2703,2449,2086
2703,2449,2088
2702,2450,2088
2702,2450,2085
2706,2451,2085
2706,2451,2087
2712,2463,2087
2712,2463,2081
2707,2458,2081
2707,2458,2080
2706,2457,2080
2706,2457,2085
2709,2461,2085
2709,2461,2083
2711,2452,2083
2711,2452,2077
2707,2452,2077
2707,2452,2085
2705,2448,2085
2705,2448,2075
2702,2440,2075
2702,2440,2074
2705,2435,2074
2705,2435,2073
2710,2425,2073
2710,2425,2072
2708,2429,2072
2708,2429,2065
2704,2427,2065
2704,2427,2069
2705,2431,2069
2705,2431,2072
2706,2434,2072
2706,2434,2078
2706,2434,2078
2706,2434,2074
2708,2434,2074
2708,2440,2074
2708,2440,2081
2710,2440,2081
2710,2442,2081
2710,2442,2083
2706,2448,2083
2706,2448,2082
2703,2446,2082
2703,2446,2081
2707,2444,2081
2707,2444,2083
2704,2437,2083
2704,2437,2085
2705,2440,2085
2705,2440,2084
2709,2438,2084
2709,2438,2085
2706,2445,2085
2706,2445,2082
2702,2456,2082
2702,2456,2083
2702,2453,2083
2702,2453,2074
2694,2447,2074
2694,2447,2075
2700,2455,2075
2700,2455,2078
2695,2448,2078
2695,2448,2069
2700,2446,2069
2700,2446,2072
2702,2445,2072
2702,2445,2074
2703,2446,2074
2703,2446,2070
2692,2448,2070
2692,2448,2071
2693,2447,2071
2693,2447,2076
2693,2446,2076
2693,2446,2083
2702,2450,2083
2702,2450,2081
2705,2446,2081
2705,2446,2077
2703,2446,2077
2703,2446,2077
2703,2446,2079
2707,2446,2079
2707,2444,2079
2707,2444,2081
2702,2439,2081
2702,2439,2083
2704,2435,2083
2704,2435,2079
2711,2423,2079
2711,2423,2081
2708,2425,2081
2708,2425,2082
2708,2428,2082
2708,2428,2076
2709,2428,2076
2709,2429,2076
2709,2429,2083
2709,2429,2083
2709,2433,2083
2709,2433,2085
2706,2433,2085
2706,2435,2085
2706,2435,2084
2703,2441,2084
2703,2441,2082
2704,2450,2082
2704,2450,2085
2700,2445,2085
2700,2445,2083
2701,2443,2083
2701,2443,2090
2702,2440,2090
2702,2440,2082
2703,2439,2082
2703,2439,2087
2703,2436,2087
2703,2436,2085
2703,2434,2085
2703,2434,2082
2703,2436,2082
2703,2436,2081
2696,2444,2081
2696,2444,2088
2699,2436,2088
2699,2436,2088
2698,2440,2088
2698,2440,2086
2700,2441,2086
2700,2441,2084
2703,2441,2084
2703,2440,2084
2703,2440,2088
2698,2444,2088
2698,2444,2081
2700,2444,2081
2700,2448,2081
2700,2448,2083
2700,2448,2083
2700,2441,2083
2700,2441,2082
2703,2441,2082
2703,2443,2082
2703,2443,2083
2700,2443,2083
2700,2445,2083
2700,2445,2085
2700,2445,2085
2700,2445,2083
2702,2449,2083
2702,2449,2082
2698,2449,2082
2698,2449,2082
2698,2449,2081
2701,2449,2081
2701,2449,2081
2701,2449,2081
2699,2449,2081
2699,2446,2081
2699,2446,2085
2700,2445,2085
2700,2445,2085
2699,2436,2085
2699,2436,2078
2699,2429,2078
2699,2429,2079
2708,2427,2079
2708,2427,2084
2703,2422,2084
2703,2422,2085
2703,2422,2085
2703,2426,2085
2703,2426,2085
2697,2426,2085
2697,2425,2085
2697,2425,2089
2699,2425,2089
2699,2433,2089
2699,2433,2080
2698,2433,2080
2698,2432,2080
2698,2432,2085
2696,2432,2085
2696,2438,2085
2696,2438,2074
2698,2430,2074
2698,2430,2076
2694,2429,2076
2694,2429,2071
2696,2428,2071
2696,2428,2071
2697,2428,2071
2697,2428,2074
2697,2428,2074
2697,2428,2074
2697,2428,2077
2696,2428,2077
2696,2427,2077
2696,2427,2084
2692,2427,2084
2692,2428,2084
2692,2428,2081
2690,2428,2081
2690,2428,2081
2690,2428,2082
2691,2428,2082
2691,2433,2082
2691,2433,2082
2698,2433,2082
2698,2437,2082
2698,2437,2085
2694,2437,2085
2694,2435,2085
2694,2435,2084
2696,2435,2084
2696,2439,2084
2696,2439,2092
2700,2439,2092
2700,2445,2092
2700,2445,2089
2696,2445,2089
2696,2442,2089
2696,2442,2086
2689,2442,2086
2689,2441,2086
2689,2441,2091
2694,2441,2091
2694,2438,2091
2694,2438,2090
2693,2438,2090
2693,2437,2090
2693,2437,2088
2694,2437,2088
2694,2442,2088
2694,2442,2084
2689,2442,2084
2689,2440,2084
2689,2440,2088
2692,2440,2088
2692,2440,2088
2692,2440,2087
2695,2440,2087
2695,2442,2087
2695,2442,2086
2694,2442,2086
2694,2444,2086
2694,2444,2086
2696,2444,2086
2696,2439,2086
2696,2439,2088
2690,2439,2088
2690,2438,2088
2690,2438,2087
2693,2438,2087
2693,2438,2087
2693,2438,2085
2693,2438,2085
2693,2433,2085
2693,2433,2083
2701,2433,2083
2701,2424,2083
2701,2424,2084
2689,2424,2084
2689,2421,2084
2689,2421,2086
2699,2421,2086
2699,2424,2086
2699,2424,2087
2696,2424,2087
2696,2425,2087
2696,2425,2086
2695,2425,2086
2695,2428,2086
2695,2428,2088
2691,2428,2088
2691,2433,2088
2691,2433,2093
2688,2433,2093
2688,2434,2093
2688,2434,2090
2695,2434,2090
2695,2436,2090
2695,2436,2090
2694,2436,2090
2694,2437,2090
2694,2437,2089
2689,2437,2089
2689,2436,2089
2689,2436,2090
2692,2436,2090
2692,2437,2090
2692,2437,2092
2686,2437,2092
2686,2431,2092
2686,2431,2088
2692,2431,2088
2692,2435,2088
2692,2435,2086
2691,2435,2086
2691,2430,2086
2691,2430,2086
2688,2430,2086
2688,2434,2086
2688,2434,2098
2690,2434,2098
2690,2432,2098
2690,2432,2090
2693,2432,2090
2693,2433,2090
2693,2433,2088
2689,2433,2088
2689,2439,2088
2689,2439,2087
2692,2439,2087
2692,2437,2087
2692,2437,2088
2690,2437,2088
2690,2440,2088
2690,2440,2089
2692,2440,2089
2692,2439,2089
2692,2439,2087
2693,2439,2087
2693,2439,2087
2693,2439,2090
2692,2439,2090
2692,2438,2090
2692,2438,2091
2694,2438,2091
2694,2439,2091
2694,2439,2088
2691,2439,2088
2691,2439,2088
2691,2439,2086
2695,2439,2086
2695,2439,2086
2695,2439,2089
2684,2439,2089
2684,2439,2089
2684,2439,2086
2690,2439,2086
2690,2441,2086
2690,2441,2084
2696,2441,2084
2696,2439,2084
2696,2439,2089
2688,2439,2089
2688,2441,2089
2688,2441,2085
2693,2441,2085
2693,2442,2085
2693,2442,2085
2689,2442,2085
2689,2438,2085
2689,2438,2092
2686,2438,2092
2686,2439,2092
2686,2439,2090
2687,2439,2090
2687,2431,2090
2687,2431,2086
2688,2431,2086
2688,2429,2086
2688,2429,2084
2689,2429,2084
2689,2418,2084
2689,2418,2086
2687,2418,2086
2687,2421,2086
2687,2421,2087
2689,2421,2087
2689,2421,2087
2689,2421,2091
2691,2421,2091
2691,2421,2091
2691,2421,2081
2685,2421,2081
2685,2426,2081
2685,2426,2090
2683,2426,2090
2683,2429,2090
2683,2429,2078
2679,2429,2078
2679,2429,2078
2679,2429,2078
2682,2429,2078
2682,2431,2078
2682,2431,2083
2678,2431,2083
2678,2429,2083
2678,2429,2079
2674,2429,2079
2674,2426,2079
2674,2426,2076
2666,2426,2076
2666,2427,2076
2666,2427,2073
2662,2427,2073
2662,2425,2073
2662,2425,2069
2666,2425,2069
2666,2416,2069
2666,2416,2069
2666,2416,2069
2666,2418,2069
2666,2418,2065
2660,2418,2065
2660,2408,2065
2660,2408,2073
2666,2408,2073
2666,2410,2073
2666,2410,2078
2670,2410,2078
2670,2411,2078
2670,2411,2084
2663,2411,2084
2663,2412,2084
2663,2412,2090
2665,2412,2090
2665,2420,2090
2665,2420,2086
2668,2420,2086
2668,2426,2086
2668,2426,2091
2677,2426,2091
2677,2417,2091
2677,2417,2091
2683,2417,2091
2683,2423,2091
2683,2423,2084
2682,2423,2084
2682,2429,2084
2682,2429,2090
2686,2429,2090
2686,2424,2090
2686,2424,2093
2683,2424,2093
2683,2427,2094
2680,2427,2094
2680,2432,2094
2680,2432,2087
2680,2432,2087
2680,2428,2087
2680,2428,2085
2688,2428,2085
2688,2434,2085
2688,2434,2086
2687,2434,2086
2687,2433,2090
2688,2433,2090
2688,2442,2094
2688,2442,2094
2688,2435,2091
2685,2435,2091
2685,2442,2088
2686,2442,2088
2686,2442,2089
2691,2442,2089
2691,2436,2090
2685,2436,2090
2685,2421,2089
2686,2421,2089
2686,2430,2089
2689,2430,2089
2689,2421,2090
2693,2421,2090
2693,2422,2090
2693,2422,2088
2690,2422,2088
2690,2422,2091
2690,2422,2091
2690,2427,2088
2688,2427,2088
2688,2430,2088
2691,2430,2088
2691,2431,2087
2684,2431,2087
2684,2427,2092
2692,2427,2092
2692,2432,2094
2688,2432,2094
2688,2432,2087
2689,2432,2087
2689,2431,2087
2689,2431,2086
2684,2431,2086
2684,2431,2094
2684,2431,2094
2684,2434,2096
2683,2434,2096
2683,2432,2093
2687,2432,2093
2687,2436,2093
2685,2436,2093
2685,2432,2092
2688,2432,2092
2688,2433,2089
2685,2433,2089
2685,2439,2092
2690,2439,2092
2690,2435,2090
2693,2435,2090
2693,2438,2091
2685,2438,2091
2685,2441,2088
2681,2441,2088
2681,2437,2093
2691,2437,2093
2691,2440,2093
2687,2440,2093
2687,2439,2088
2684,2439,2088
2684,2439,2090
2685,2439,2090
2685,2438,2089
2685,2438,2089
2685,2440,2092
2691,2440,2092
2691,2439,2091
2691,2439,2091
2691,2436,2091
2696,2436,2091
2696,2437,2092
2689,2437,2092
2689,2435,2095
2687,2435,2095
2687,2440,2093
2693,2440,2093
2693,2441,2091
2697,2441,2091
2697,2432,2091
2693,2432,2091
2693,2427,2088
2689,2427,2088
2689,2421,2086
2698,2421,2086
2698,2421,2088
2698,2419,2088
2690,2419,2088
2690,2421,2087
2691,2421,2087
2691,2420,2094
2694,2420,2094
2694,2427,2086
2694,2427,2086
2694,2426,2087
2688,2426,2087
2688,2431,2094
2687,2431,2094
2687,2431,2092
2687,2431,2092
2687,2430,2086
2689,2430,2086
2689,2431,2090
2686,2431,2090
2686,2430,2086
2685,2430,2086
2685,2426,2089
2689,2426,2089
2689,2431,2085
2688,2431,2085
2688,2431,2081
2688,2428,2081
2690,2428,2081
2690,2428,2080
2690,2429,2080
2686,2429,2080
2686,2429,2082
2686,2426,2082
2684,2426,2082
2684,2426,2074
2684,2424,2074
2685,2424,2074
2685,2422,2081
2682,2422,2081
2682,2424,2084
2688,2424,2084
2688,2424,2086
2690,2424,2086
2690,2432,2086
2686,2432,2086
2686,2432,2094
2691,2432,2094
2691,2433,2092
2689,2433,2092
2689,2433,2092
2689,2436,2092
2686,2436,2092
2686,2436,2086
2692,2436,2086
2692,2436,2088
2692,2433,2088
2685,2433,2088
2685,2433,2088
2685,2437,2088
2694,2437,2088
2694,2437,2092
2694,2436,2092
2691,2436,2092
2691,2436,2088
2691,2432,2088
2683,2432,2088
2683,2432,2093
2683,2437,2093
2680,2437,2093
2680,2437,2092
2680,2440,2092
2689,2440,2092
2689,2440,2096
2689,2434,2096
2685,2434,2096
2685,2434,2090
2685,2428,2090
2690,2428,2090
2690,2428,2094
2690,2425,2094
2686,2425,2094
2686,2425,2091
2686,2421,2091
2691,2421,2091
2691,2421,2091
2691,2419,2091
2689,2419,2091
2689,2419,2091
2689,2427,2091
2686,2427,2091
2686,2427,2091
2686,2426,2091
2685,2426,2091
2685,2426,2089
2685,2428,2089
2684,2428,2089
2684,2428,2097
2684,2429,2097
2682,2429,2097
2682,2429,2093
2682,2430,2093
2685,2430,2093
2685,2430,2097
2685,2435,2097
2685,2435,2097
2685,2435,2092
2685,2432,2092
2689,2432,2092
2689,2432,2096
2689,2431,2096
2683,2431,2096
2683,2431,2095
2683,2427,2095
2686,2427,2095
2686,2427,2091
2686,2432,2091
2684,2432,2091
2684,2432,2093
2684,2429,2093
2686,2429,2093
2686,2429,2099
2686,2434,2099
2682,2434,2099
2682,2434,2090
2682,2432,2090
2684,2432,2090
2684,2432,2098
2684,2435,2098
2681,2435,2098
2681,2435,2094
2681,2428,2094
2688,2428,2094
2688,2428,2095
2688,2434,2095
2689,2434,2095
2689,2434,2097
2689,2436,2097
2685,2436,2097
2685,2436,2095
2685,2441,2095
2684,2441,2095
2684,2441,2094
2684,2435,2094
2686,2435,2094
2686,2435,2096
2686,2440,2096
2687,2440,2096
2687,2440,2095
2687,2440,2095
2684,2440,2095
2684,2440,2091
2684,2434,2091
2687,2434,2091
2687,2434,2093
2687,2435,2093
2687,2435,2093
2687,2435,2094
2687,2439,2094
2681,2439,2094
2681,2439,2089
2681,2443,2089
2688,2443,2089
2688,2443,2087
2688,2437,2087
2686,2437,2087
2686,2437,2086
2686,2438,2086
2682,2438,2086
2682,2438,2088
2682,2438,2088
2685,2438,2088
2685,2438,2083
2685,2444,2083
2683,2444,2083
2683,2444,2086
2683,2440,2086
2676,2440,2086
2676,2440,2083
2676,2435,2083
2676,2435,2083
2676,2435,2081
2676,2426,2081
2672,2426,2081
2672,2426,2076
2672,2423,2076
2674,2423,2076
2674,2423,2082
2674,2422,2082
2676,2422,2082
2676,2422,2088
2676,2423,2088
2678,2423,2088
2678,2423,2090
2678,2422,2090
2679,2422,2090
2679,2422,2086
2679,2425,2086
2671,2425,2086
2671,2425,2093
2671,2427,2093
2680,2427,2093
2680,2427,2100
2680,2435,2100
2680,2435,2100
2680,2435,2094
2680,2430,2094
2681,2430,2093
2681,2434,2093
2681,2434,2093
2681,2434,2097
2681,2431,2097
2683,2431,2097
2683,2431,2092
2683,2428,2092
2687,2428,2092
2687,2428,2096
2687,2434,2096
2680,2434,2096
2680,2434,2098
2680,2431,2098
2682,2431,2098
2682,2431,2097
2682,2432,2097
2687,2432,2097
2687,2432,2097
2687,2428,2097
2680,2428,2097
2680,2428,2097
2680,2433,2097
2684,2433,2097
2684,2433,2096
2684,2431,2096
2684,2431,2088
2684,2428,2088
2685,2428,2088
2685,2428,2086
2685,2429,2086
2684,2429,2086
2684,2429,2090
2684,2432,2090
2684,2432,2090
2684,2432,2084
2684,2431,2084
2684,2431,2084
2684,2431,2084
2684,2421,2084
2686,2421,2084
2686,2421,2079
2686,2419,2079
2682,2419,2079
2682,2419,2090
2682,2426,2090
2683,2426,2090
2683,2426,2094
2683,2424,2094
2689,2424,2094
2689,2424,2094
2689,2431,2094
2685,2431,2097
2685,2433,2097
2686,2433,2095
2686,2436,2095
2686,2436,2095
2686,2434,2095
2684,2434,2093
2684,2436,2093
2689,2436,2093
2689,2439,2093
2689,2439,2096
2689,2435,2096
2687,2435,2093
2687,2436,2093
2684,2436,2093
2684,2436,2100
2684,2437,2100
2686,2437,2100
2686,2437,2094
2686,2425,2094
2683,2425,2094
2683,2425,2091
2683,2428,2091
2691,2428,2095
2691,2418,2095
2688,2418,2093
2688,2424,2093
2689,2424,2096
2689,2425,2096
2680,2425,2097
2680,2429,2097
2678,2429,2097
2678,2425,2097
2677,2425,2097
2677,2425,2097
2677,2422,2097
2676,2422,2097
2676,2422,2101
2676,2427,2101
2672,2427,2101
2672,2427,2101
2672,2424,2101
2669,2424,2096
2669,2423,2096
2669,2423,2096
2669,2422,2096
2670,2422,2098
2670,2421,2098
2666,2421,2098
2666,2421,2095
2666,2419,2095
2666,2419,2095
2666,2419,2100
2666,2414,2100
2674,2414,2094
2674,2416,2094
2670,2416,2095
2670,2417,2095
2671,2417,2093
2671,2419,2093
2672,2419,2098
2672,2413,2098
2672,2413,2099
2672,2422,2099
2677,2422,2093
2677,2424,2093
2680,2424,2093
2680,2424,2094
2680,2421,2094
2677,2421,2095
2677,2427,2095
2674,2427,2091
2674,2423,2091
2678,2423,2094
2678,2432,2094
2683,2432,2095
2683,2429,2095
2682,2429,2093
2682,2430,2093
2677,2430,2096
2677,2431,2096
2683,2431,2092
2683,2436,2092
2680,2436,2096
2680,2436,2096
2681,2436,2093
2681,2435,2093
2685,2435,2098
2685,2438,2098
2686,2438,2095
2686,2441,2095
2683,2441,2092
2683,2442,2092
2682,2442,2094
2682,2438,2094
2683,2438,2088
2683,2429,2088
2681,2429,2093
2681,2419,2093
2688,2419,2095
2688,2418,2095
2679,2418,2095
2679,2418,2089
2679,2413,2089
2683,2413,2090
2683,2417,2090
2679,2417,2089
2679,2422,2089
2682,2422,2093
2682,2423,2093
2682,2423,2095
2682,2425,2095
2679,2425,2095
2679,2421,2095
2683,2421,2095
2683,2427,2095
2686,2427,2097
2686,2429,2097
2689,2429,2090
2689,2431,2090
2688,2431,2091
2688,2432,2091
2688,2432,2095
2688,2427,2095
2686,2427,2095
2686,2430,2095
2686,2430,2092
2686,2425,2092
2691,2425,2093
2691,2425,2093
2687,2425,2094
2687,2429,2094
2684,2429,2096
2684,2428,2096
2683,2428,2097
2683,2430,2097
2684,2430,2094
2684,2429,2094
2688,2429,2092
2688,2430,2092
2684,2430,2094
2684,2430,2094
2684,2430,2089
2684,2433,2089
2681,2433,2083
2681,2430,2083
2684,2430,2078
2684,2427,2078
2682,2427,2076
2682,2423,2076
2685,2423,2081
2685,2422,2081
2683,2422,2089
2683,2424,2089
2679,2424,2089
2679,2431,2089
2683,2431,2089
2683,2434,2089
2685,2434,2092
2685,2436,2092
2689,2436,2091
2689,2435,2091
2689,2435,2089
2686,2435,2089
2686,2433,2089
2687,2433,2087
2687,2425,2087
2681,2425,2086
2681,2419,2086
2684,2419,2088
2684,2415,2088
2682,2415,2088
2682,2417,2088
2685,2417,2087
2685,2418,2087
2685,2418,2086
2685,2417,2086
2681,2417,2089
2681,2424,2089
2680,2424,2088
2680,2426,2088
2682,2426,2089
2682,2432,2089
2680,2432,2090
2680,2429,2090
2677,2429,2088
2677,2430,2088
2680,2430,2094
2680,2432,2094
2680,2432,2094
2683,2432,2094
2683,2429,2094
2683,2429,2093
2681,2429,2093
2681,2427,2093
2681,2427,2085
2686,2427,2085
2686,2429,2085
2686,2429,2087
2684,2429,2087
2684,2423,2087
2685,2423,2090
2685,2424,2090
2683,2424,2081
2683,2430,2081
2683,2430,2084
2683,2431,2084
2678,2431,2081
2678,2430,2081
2679,2430,2083
2679,2433,2083
2677,2433,2079
2677,2431,2079
2677,2431,2077
2679,2431,2077
2679,2431,2077
2679,2431,2077
2676,2431,2077
2676,2432,2077
2676,2432,2080
2672,2432,2080
2672,2430,2080
2670,2430,2080
2670,2436,2080
2670,2436,2075
2668,2436,2075
2668,2433,2075
2668,2433,2079
2671,2433,2079
2671,2433,2079
2671,2433,2077
2672,2433,2077
2672,2434,2077
2670,2434,2080
2670,2434,2080
2670,2434,2079
2672,2434,2079
2672,2434,2079
2672,2434,2083
2675,2434,2083
2675,2435,2083
2675,2435,2083
2672,2435,2083
2672,2438,2083
2672,2438,2081
2676,2438,2081
2676,2427,2081
2676,2427,2081
2676,2427,2081
2676,2427,2084
2679,2427,2084
2679,2420,2084
2679,2420,2080
2680,2420,2080
2680,2419,2080
2680,2419,2085
2682,2419,2085
2682,2418,2085
2682,2418,2078
2685,2418,2078
2685,2420,2078
2685,2420,2084
2683,2420,2084
2683,2418,2084
2683,2418,2081
2682,2418,2081
2682,2420,2081
2682,2420,2085
2700,2420,2085
2700,2429,2085
2700,2429,2085
2679,2429,2085
2679,2425,2085
2679,2425,2085
2683,2425,2085
2683,2422,2085
2683,2422,2082
2681,2422,2082
2681,2427,2082
2681,2427,2083
2682,2427,2083
2682,2425,2083
2682,2425,2083
2679,2425,2083
2679,2424,2083
2679,2424,2084
2678,2424,2084
2678,2424,2084
2682,2424,2081
2682,2426,2081
2682,2426,2083
2679,2426,2083
2679,2425,2083
2679,2425,2080
2685,2425,2080
2685,2421,2080
2685,2421,2083
2683,2421,2083
2683,2423,2083
2683,2423,2082
2678,2423,2082
2678,2425,2082
2678,2425,2079
2679,2425,2079
2679,2432,2079
2679,2432,2079
2676,2432,2079
2676,2427,2079
2676,2427,2079
2686,2427,2079
2686,2428,2079
2686,2428,2081
2682,2428,2081
2682,2429,2081
2682,2429,2077
2682,2429,2077
2682,2433,2077
2682,2433,2081
2682,2433,2081
2682,2432,2081
2682,2432,2076
2684,2432,2076
2684,2432,2076
2684,2432,2079
2679,2432,2079
2679,2427,2079
2679,2427,2077
2679,2427,2077
2679,2429,2077
2679,2429,2067
2682,2429,2067
2682,2427,2067
2682,2427,2066
2678,2427,2066
2678,2427,2066
2678,2427,2065
2685,2427,2065
2685,2421,2065
2685,2421,2071
2687,2421,2071
2687,2423,2071
2687,2423,2062
2678,2423,2062
2678,2425,2062
2678,2425,2069
2678,2425,2069
2678,2422,2069
2678,2422,2066
2681,2422,2066
2681,2415,2066
2681,2415,2068
2685,2415,2068
2685,2412,2068
2685,2412,2077
2684,2412,2077
2684,2413,2077
2684,2413,2077
2688,2413,2077
2688,2412,2077
2688,2412,2077
2680,2412,2077
2680,2409,2077
2680,2409,2077
2683,2409,2077
2683,2415,2077
2683,2415,2080
2681,2415,2080
2681,2424,2080
2681,2424,2076
2685,2424,2076
2685,2420,2076
2685,2420,2075
2679,2420,2075
2679,2421,2075
2679,2421,2080
2681,2421,2080
2681,2418,2080
2681,2418,2070
2679,2418,2070
2679,2422,2070
2679,2422,2081
2677,2422,2081
2677,2422,2075
2686,2422,2075
2686,2425,2069
2671,2425,2069
2671,2414,2077
2678,2414,2077
2678,2423,2074
2682,2423,2074
2682,2419,2074
2682,2419,2068
2682,2419,2068
2682,2424,2068
2682,2424,2072
2674,2424,2072
2674,2430,2072
2674,2430,2070
2675,2430,2070
2675,2429,2070
2675,2429,2075
2679,2429,2075
2679,2424,2072
2676,2424,2072
2676,2426,2070
2681,2426,2070
2681,2429,2071
2678,2429,2071
2678,2428,2070
2680,2428,2070
2680,2427,2069
2683,2427,2069
2683,2428,2071
2681,2428,2071
2681,2432,2071
2673,2432,2071
2673,2428,2072
2673,2428,2072
2673,2432,2069
2681,2432,2069
2681,2426,2070
2677,2426,2070
2677,2427,2063
2677,2427,2063
2677,2427,2066
2678,2427,2066
2678,2424,2069
2680,2424,2069
2680,2431,2071
2682,2431,2071
2682,2430,2068
2685,2430,2068
2685,2431,2069
2674,2431,2069
2674,2429,2069
2674,2429,2071
2684,2429,2071
2684,2425,2066
2679,2425,2066
2679,2417,2063
2680,2417,2063
2680,2419,2063
2681,2419,2063
2681,2418,2067
2683,2418,2067
2683,2412,2064
2677,2412,2064
2677,2417,2066
2678,2417,2066
2678,2418,2062
2676,2418,2062
2676,2416,2066
2676,2416,2066
2676,2418,2065
2668,2418,2065
2668,2416,2061
2673,2416,2061
2673,2413,2065
2670,2413,2065
2670,2412,2071
2665,2412,2071
2665,2413,2065
2669,2413,2065
2669,2410,2068
2663,2410,2068
2663,2408,2066
2666,2408,2066
2666,2405,2069
2660,2405,2069
2660,2410,2058
2664,2410,2058
2664,2408,2064
2668,2408,2064
2668,2411,2061
2669,2411,2061
2669,2417,2061
2672,2417,2061
2672,2416,2062
2673,2416,2062
2673,2417,2065
2678,2417,2065
2678,2417,2064
2675,2417,2064
2675,2419,2063
2677,2419,2063
2677,2424,2061
2676,2424,2061
2676,2422,2063
2680,2422,2063
2680,2425,2064
2680,2425,2064
2680,2426,2062
2683,2426,2062
2683,2426,2063
2683,2428,2063
2685,2428,2063
2685,2430,2061
2682,2430,2061
2682,2427,2054
2683,2427,2054
2683,2424,2057
2682,2424,2057
2682,2424,2052
2682,2419,2052
2681,2419,2052
2681,2419,2051
2681,2415,2051
2681,2415,2051
2681,2415,2048
2681,2412,2048
2680,2412,2048
2680,2413,2049
2680,2413,2049
2680,2403,2055
2684,2403,2055
2684,2400,2057
2688,2400,2057
2688,2403,2059
2683,2403,2059
2683,2403,2061
2683,2407,2061
2681,2407,2061
2681,2407,2060
2681,2415,2060
2685,2415,2060
2685,2415,2055
2685,2417,2055
2679,2417,2055
2679,2417,2054
2679,2421,2054
2678,2421,2054
2678,2421,2056
2678,2418,2056
2681,2418,2056
2681,2415,2049
2678,2415,2049
2678,2421,2050
2670,2421,2050
2670,2421,2048
2670,2424,2048
2672,2424,2048
2672,2424,2047
2672,2421,2047
2667,2421,2047
2667,2421,2048
2667,2419,2048
2669,2419,2048
2669,2419,2048
2669,2424,2048
2667,2424,2048
2667,2424,2044
2667,2427,2044
2664,2427,2044
2664,2427,2050
2664,2415,2050
2671,2415,2050
2671,2415,2053
2671,2418,2053
2665,2418,2053
2665,2418,2052
2665,2422,2052
2672,2422,2052
2672,2422,2059
2672,2423,2059
2670,2423,2059
2670,2423,2051
2670,2422,2051
2675,2422,2051
2675,2422,2056
2675,2423,2056
2677,2423,2056
2677,2423,2058
2677,2425,2058
2681,2425,2058
2681,2425,2055
2681,2429,2055
2674,2429,2055
2674,2429,2066
2674,2427,2066
2682,2427,2066
2682,2427,2057
2682,2426,2057
2681,2426,2057
2681,2426,2056
2681,2422,2056
2676,2422,2056
2676,2422,2056
2676,2422,2056
2681,2422,2056
2681,2422,2055
2681,2429,2055
2681,2429,2055
2681,2429,2056
2681,2424,2056
2686,2424,2056
2686,2424,2055
2686,2428,2055
2681,2428,2055
2681,2428,2055
2681,2427,2055
2682,2427,2055
2682,2427,2056
2682,2428,2056
2680,2428,2056
2680,2428,2059
2680,2429,2059
2681,2429,2059
2681,2429,2054
2681,2430,2054
2675,2430,2054
2675,2430,2058
2675,2416,2058
2679,2416,2058
2679,2416,2060
2679,2413,2060
2684,2413,2060
2684,2413,2058
2684,2411,2058
2678,2411,2058
2678,2411,2056
2678,2419,2056
2682,2419,2056
2682,2419,2060
2682,2413,2060
2680,2413,2060
2680,2413,2060
2680,2413,2060
2677,2413,2060
2677,2413,2057
2677,2418,2057
2675,2418,2057
2675,2418,2056
2675,2418,2056
2676,2418,2056
2676,2418,2055
2676,2417,2055
2677,2417,2055
2677,2417,2056
2677,2419,2056
2676,2419,2056
2676,2419,2053
2676,2425,2053
2680,2425,2053
2680,2425,2055
2680,2420,2055
2683,2420,2055
2683,2420,2056
2683,2422,2056
2675,2422,2056
2675,2422,2051
2675,2418,2051
2677,2418,2051
2677,2418,2050
2677,2417,2050
2678,2417,2050
2678,2417,2054
2678,2417,2054
2677,2417,2054
2677,2417,2049
2677,2422,2049
2675,2422,2049
2675,2422,2055
2675,2425,2055
2675,2425,2055
2675,2425,2055
2675,2426,2055
2680,2426,2055
2680,2426,2052
2680,2424,2052
2678,2424,2052
2678,2424,2054
2678,2423,2054
2679,2423,2054
2679,2423,2056
2679,2428,2056
2678,2428,2056
2678,2428,2055
2678,2425,2055
2675,2425,2055
2675,2425,2057
2675,2428,2057
2680,2428,2057
2680,2428,2055
2680,2424,2055
2681,2424,2055
2681,2424,2054
2681,2424,2054
2681,2424,2054
2681,2424,2054
2681,2425,2054
2683,2425,2054
2683,2425,2056
2683,2429,2056
2681,2429,2056
2681,2429,2055
2681,2427,2055
2677,2427,2055
2677,2427,2054
2677,2426,2054
2683,2426,2054
2683,2426,2054
2683,2423,2054
2678,2423,2054
2678,2423,2054
2678,2424,2054
2682,2424,2054
2682,2424,2055
2679,2427,2055
2679,2427,2055
2679,2427,2055
2681,2427,2055
2681,2427,2042
2681,2424,2042
2681,2424,2042
2681,2424,2041
2682,2414,2041
2682,2414,2046
2682,2405,2046
2680,2405,2046
2680,2405,2042
2680,2402,2042
2685,2402,2042
2685,2402,2038
2685,2400,2038
2686,2400,2038
2686,2400,2050
2686,2404,2050
2686,2404,2047
2686,2407,2047
2683,2407,2047
2683,2407,2051
2683,2411,2051
2682,2411,2051
2682,2411,2054
2682,2415,2054
2679,2415,2054
2679,2415,2050
2679,2416,2050
2680,2416,2050
2680,2416,2047
2680,2416,2047
2680,2416,2047
2680,2416,2054
2682,2423,2054
2682,2423,2055
2680,2420,2055
2680,2420,2062
2683,2418,2062
2683,2418,2052
2678,2418,2052
2678,2418,2047
2677,2420,2047
2677,2420,2054
2677,2418,2054
2679,2418,2054
2679,2418,2056
2679,2419,2056
2681,2419,2056
2681,2419,2052
2681,2420,2052
2685,2420,2052
2685,2420,2056
2678,2417,2056
2678,2417,2053
2676,2421,2053
2676,2421,2052
2679,2420,2052
2679,2420,2052
2682,2423,2052
2682,2423,2059
2677,2420,2059
2677,2420,2055
2681,2424,2055
2681,2424,2052
2684,2428,2052
2684,2428,2051
2682,2426,2051
2682,2426,2054
2679,2425,2054
2679,2425,2053
2678,2426,2053
2678,2426,2051
2681,2426,2051
2681,2426,2052
2681,2424,2052
2686,2424,2052
2686,2424,2050
2684,2425,2050
2684,2425,2050
2679,2429,2050
2679,2429,2050
2683,2431,2050
2683,2431,2052
2682,2431,2052
2682,2431,2055
2685,2434,2055
2685,2434,2054
2685,2428,2054
2687,2428,2054
2687,2428,2052
2687,2424,2052
2687,2424,2052
2687,2424,2051
2687,2415,2051
2688,2415,2051
2688,2415,2051
2688,2410,2051
2688,2410,2052
2692,2410,2052
2692,2410,2050
2690,2418,2050
2690,2418,2054
2687,2415,2054
2687,2415,2050
2686,2419,2050
2686,2419,2051
2685,2421,2051
2685,2421,2052
2685,2423,2052
2683,2423,2052
2683,2423,2055
2683,2421,2055
2681,2421,2055
2681,2421,2049
2685,2425,2049
2685,2425,2057
2688,2426,2057
2688,2426,2047
2680,2420,2047
2680,2420,2051
2678,2425,2051
2678,2425,2047
2678,2423,2047
2678,2423,2053
2681,2422,2053
2681,2422,2047
2684,2421,2047
2684,2421,2050
2684,2419,2050
2684,2419,2051
2680,2419,2051
2680,2419,2046
2684,2428,2046
2684,2428,2047
2681,2436,2047
2681,2436,2053
2680,2428,2053
2680,2428,2053
2681,2426,2053
2681,2426,2056
2687,2425,2056
2687,2425,2059
2691,2426,2059
2691,2426,2053
2684,2426,2053
2684,2426,2052
2682,2428,2052
2682,2428,2053
2678,2431,2053
2678,2431,2051
2674,2432,2051
2674,2432,2055
2674,2432,2055
2674,2432,2058
2679,2425,2058
2679,2425,2051
2681,2425,2051
2681,2425,2048
2682,2425,2048
2682,2425,2049
2671,2420,2049
2671,2420,2044
2675,2422,2044
2675,2422,2042
2674,2412,2042
2674,2412,2034
2665,2406,2034
2665,2406,2031
2668,2394,2031
2668,2394,2029
2669,2394,2029
2669,2394,2027
2665,2389,2027
2665,2389,2026
2666,2393,2026
2666,2393,2032
2664,2399,2032
2664,2399,2037
2667,2402,2037
2667,2402,2037
2669,2403,2037
2669,2403,2042
2671,2410,2042
2671,2410,2044
2673,2415,2044
2673,2415,2044
2676,2417,2044
2676,2417,2043
2676,2419,2043
2676,2419,2046
2679,2418,2046
2679,2418,2046
2679,2417,2046
2679,2417,2053
2685,2421,2053
2685,2421,2048
2689,2423,2048
2689,2423,2056
2681,2418,2056
2681,2418,2056
2687,2419,2056
2687,2419,2052
2694,2428,2052
2694,2428,2053
2687,2427,2053
2687,2427,2055
2690,2432,2055
2690,2432,2056
2692,2427,2056
2692,2427,2053
2686,2425,2053
2686,2425,2056
2687,2428,2056
2687,2428,2052
2682,2425,2052
2682,2425,2050
2687,2437,2050
2687,2437,2052
2681,2430,2052
2681,2430,2050
2688,2430,2050
2688,2430,2051
2688,2428,2051
2688,2428,2046
2691,2431,2046
2691,2431,2047
2693,2430,2047
2693,2430,2050
2686,2430,2050
2686,2427,2050
2686,2427,2048
2689,2430,2048
2689,2430,2049
2690,2429,2049
2690,2429,2050
2691,2417,2050
2691,2417,2048
2685,2415,2048
2685,2415,2049
2685,2414,2049
2685,2414,2050
2691,2409,2050
2691,2409,2047
2689,2411,2047
2689,2411,2052
2683,2410,2052
2683,2410,2051
2686,2420,2051
2686,2420,2051
2686,2423,2051
2686,2423,2051
2682,2427,2051
2682,2427,2053
2681,2421,2053
2681,2421,2050
2682,2422,2050
2682,2422,2049
2683,2421,2049
2683,2421,2056
2680,2421,2056
2680,2421,2053
2686,2420,2053
2686,2420,2048
2679,2419,2048
2679,2419,2045
2684,2421,2045
2684,2421,2048
2686,2422,2048
2686,2422,2051
2686,2422,2051
2686,2423,2051
2686,2423,2055
2690,2425,2055
2690,2425,2051
2685,2422,2051
2685,2422,2051
2681,2424,2051
2681,2424,2049
2684,2424,2049
2684,2424,2049
2684,2424,2050
2690,2427,2050
2690,2427,2047
2689,2425,2047
2689,2425,2047
2688,2424,2047
2688,2424,2048
2685,2429,2048
2685,2429,2049
2692,2429,2049
2692,2429,2049
2692,2429,2043
2688,2429,2043
2688,2430,2043
2688,2430,2047
2688,2430,2047
2688,2426,2047
2688,2426,2054
2688,2429,2054
2688,2429,2045
2685,2424,2045
2685,2424,2053
2686,2428,2053
2686,2428,2057
2686,2423,2057
2686,2423,2046
2685,2430,2046
2685,2430,2055
2690,2422,2055
2690,2422,2046
2686,2415,2046
2686,2415,2045
2688,2415,2045
2688,2415,2046
2690,2412,2046
2690,2412,2051
2690,2403,2051
2690,2403,2045
2690,2403,2045
2690,2407,2045
2690,2407,2037
2686,2411,2037
2686,2411,2038
2683,2411,2038
2683,2411,2039
2679,2411,2039
2679,2406,2039
2679,2406,2036
2682,2407,2036
2682,2407,2044
2687,2406,2044
2687,2406,2041
2686,2413,2041
2686,2413,2045
2689,2413,2045
2689,2415,2045
2689,2415,2047
2686,2415,2047
2686,2420,2047
2686,2420,2047
2680,2420,2047
2680,2422,2047
2680,2422,2047
2676,2422,2047
2676,2421,2047
2676,2421,2047
2688,2421,2047
2688,2416,2048
2680,2423,2048
2680,2423,2046
2687,2421,2046
2687,2421,2047
2689,2421,2047
2689,2419,2047
2689,2419,2049
2685,2419,2049
2685,2419,2049
2685,2419,2051
2693,2419,2051
2693,2423,2051
2693,2423,2048
2687,2423,2048
2687,2424,2048
2686,2424,2048
2686,2421,2047
2689,2421,2047
2689,2430,2046
2688,2430,2046
2688,2427,2047
2688,2427,2047
2688,2426,2050
2685,2426,2050
2685,2425,2051
2681,2425,2051
2681,2425,2051
2684,2425,2051
2684,2432,2054
2687,2432,2054
2687,2425,2051
2687,2425,2051
2687,2430,2047
2680,2430,2047
2680,2428,2051
2685,2428,2051
2685,2430,2050
2684,2430,2050
2684,2424,2050
2681,2424,2050
2681,2420,2042
2684,2420,2042
2684,2417,2047
2686,2417,2047
2686,2409,2045
2687,2409,2045
2687,2411,2047
2684,2411,2047
2684,2410,2052
2691,2410,2052
2691,2412,2051
2684,2412,2051
2684,2416,2050
2678,2416,2050
2678,2419,2044
2683,2419,2044
2683,2421,2047
2683,2421,2047
2683,2418,2040
2682,2418,2040
2682,2422,2045
2681,2422,2045
2681,2423,2043
2684,2423,2043
2684,2420,2047
2683,2420,2047
2683,2423,2047
2690,2423,2047
2690,2423,2042
2690,2423,2042
2690,2420,2050
2689,2420,2050
2689,2420,2044
2689,2420,2044
2689,2422,2053
2684,2422,2053
2684,2423,2052
2685,2423,2052
2685,2420,2045
2682,2420,2045
2682,2422,2056
2684,2422,2056
2684,2421,2055
2686,2421,2055
2686,2423,2051
2680,2423,2051
2680,2426,2056
2690,2426,2056
2690,2423,2051
2684,2423,2051
2684,2425,2051
2687,2425,2051
2687,2421,2045
2684,2421,2045
2684,2419,2042
2687,2419,2042
2687,2423,2047
2684,2423,2047
2684,2415,2038
2684,2415,2038
2684,2419,2039
2683,2419,2039
2683,2427,2042
2675,2427,2042
2675,2430,2039
2675,2430,2039
2675,2433,2037
2676,2433,2037
2676,2431,2035
2672,2431,2035
2672,2419,2035
2679,2419,2035
2679,2411,2039
2679,2411,2039
2679,2414,2040
2677,2414,2040
2677,2409,2041
2677,2409,2041
2677,2412,2042
2680,2412,2042
2680,2413,2044
2680,2413,2044
2680,2414,2040
2676,2414,2040
2676,2414,2042
2681,2414,2042
2681,2414,2043
2681,2415,2043
2684,2415,2043
2684,2411,2042
2680,2411,2042
2680,2409,2039
2682,2409,2039
2682,2407,2041
2684,2407,2041
2684,2405,2042
2694,2405,2042
2694,2407,2038
2694,2407,2038
2694,2407,2046
2694,2406,2046
2690,2406,2046
2690,2406,2044
2690,2407,2044
2688,2407,2044
2688,2407,2043
2688,2405,2043
2682,2405,2043
2682,2405,2048
2682,2414,2048
2684,2414,2048
2684,2413,2047
2676,2413,2047
2676,2412,2047
2672,2412,2047
2672,2414,2045
2674,2414,2047
2674,2416,2047
2670,2416,2046
2670,2425,2046
2670,2425,2046
2670,2420,2047
2672,2420,2047
2672,2415,2047
2674,2415,2049
2674,2413,2049
2665,2413,2050
2665,2411,2050
2671,2411,2050
2671,2408,2050
2674,2408,2045
2674,2411,2045
2673,2411,2049
2673,2406,2049
2674,2406,2049
2674,2407,2049
2677,2407,2049
2677,2407,2047
2677,2408,2047
2682,2408,2042
2682,2405,2042
2681,2405,2042
2681,2405,2047
2681,2406,2047
2680,2406,2047
2680,2406,2047
2680,2396,2047
2686,2396,2047
2686,2396,2049
2686,2396,2049
2682,2396,2049
2682,2394,2049
2683,2394,2046
2683,2401,2046
2684,2401,2051
2684,2401,2051
2685,2401,2051
2685,2401,2050
2685,2412,2050
2685,2412,2050
2685,2412,2045
2685,2412,2045
2683,2412,2046
2683,2410,2046
2680,2410,2042
2680,2412,2042
2683,2412,2048
2683,2417,2048
2691,2417,2049
2691,2425,2049
2684,2425,2049
2684,2425,2041
2684,2418,2041
2689,2418,2041
2689,2418,2046
2689,2419,2046
2686,2419,2046
2686,2419,2052
2686,2417,2052
2683,2417,2044
2683,2417,2044
2679,2417,2044
2679,2418,2044
2680,2418,2048
2680,2415,2048
2683,2415,2048
2683,2419,2048
2682,2419,2052
2682,2419,2052
2683,2419,2049
2683,2417,2049
2679,2417,2044
2679,2420,2044
2679,2420,2046
2679,2418,2046
2683,2418,2042
2683,2417,2042
2685,2417,2050
2685,2421,2050
2684,2421,2047
2684,2419,2047
2682,2419,2047
2682,2422,2047
2684,2422,2044
2684,2423,2044
2682,2423,2045
2682,2423,2045
2680,2423,2051
2680,2421,2051
2684,2421,2044
2684,2421,2044
2684,2421,2044
2684,2426,2044
2684,2426,2044
2684,2419,2044
2684,2419,2045
2684,2420,2045
2693,2420,2047
2693,2411,2047
2695,2411,2046
2695,2408,2046
2687,2408,2041
2687,2401,2041
2690,2401,2046
2690,2407,2046
2692,2407,2051
2692,2405,2051
2689,2405,2048
2689,2406,2048
2683,2406,2049
2683,2407,2049
2685,2407,2050
2685,2409,2050
2685,2409,2047
2685,2416,2047
2684,2416,2050
2684,2415,2050
2680,2415,2051
2680,2415,2051
2681,2415,2050
2681,2414,2050
2680,2414,2045
2680,2412,2045
2679,2412,2045
2679,2415,2045
2682,2415,2045
2682,2411,2045
2681,2411,2039
2681,2404,2039
2681,2404,2039
2681,2402,2039
2682,2402,2039
2682,2402,2039
2677,2402,2033
2677,2407,2033
2680,2407,2040
2680,2406,2040
2675,2406,2044
2675,2410,2044
2680,2410,2039
2680,2409,2039
2681,2409,2046
2681,2415,2046
2678,2415,2044
2678,2420,2044
2681,2420,2047
2681,2419,2047
2685,2419,2046
2685,2419,2046
2680,2419,2041
2680,2419,2041
2681,2419,2044
2681,2424,2044
2681,2424,2045
2681,2425,2045
2684,2425,2043
2684,2422,2043
2684,2422,2052
2684,2421,2052
2687,2421,2048
2687,2421,2048
2689,2421,2049
2689,2429,2049
2687,2429,2048
2687,2417,2048
2681,2417,2050
2681,2415,2050
2679,2415,2047
2679,2411,2047
2685,2411,2048
2685,2411,2048
2687,2411,2047
2687,2406,2047
2685,2406,2051
2685,2403,2051
2685,2403,2050
2685,2408,2050
2683,2408,2048
2683,2411,2048
2682,2411,2050
2682,2411,2050
2682,2411,2048
2679,2411,2048
2679,2411,2048
2677,2411,2051
2677,2415,2051
2679,2415,2046
2679,2416,2046
2677,2416,2050
2677,2415,2050
2677,2415,2046
2677,2413,2046
2676,2413,2050
2676,2415,2050
2680,2415,2052
2680,2411,2052
2677,2411,2049
2677,2416,2049
2677,2416,2050
2676,2416,2050
2676,2413,2050
2676,2413,2051
2681,2413,2051
2681,2412,2051
2680,2412,2045
2680,2415,2045
2678,2415,2052
2678,2416,2052
2679,2416,2048
2679,2419,2048
2684,2419,2048
2684,2421,2048
2688,2421,2047
2688,2420,2047
2683,2420,2045
2683,2419,2045
2679,2419,2044
2679,2420,2044
2679,2420,2041
2679,2420,2041
2673,2420,2049
2673,2419,2049
2670,2419,2050
2670,2419,2050
2669,2419,2042
2669,2418,2042
2665,2418,2049
2665,2418,2049
2668,2418,2041
2668,2422,2041
2672,2422,2039
2672,2424,2039
2676,2424,2041
2676,2422,2041
2678,2422,2044
2678,2424,2044
2673,2424,2048
2673,2423,2048
2676,2423,2047
2676,2409,2047
