5110,3385,3033
5106,3384,3031
5110,3384,3033
5110,3384,3030
5105,3385,3030
5105,3385,3030
5110,3386,3030
5110,3386,3030
5110,3384,3030
5110,3384,3034
5112,3383,3034
5112,3383,3033
5115,3384,3033
5115,3384,3031
5119,3380,3031
5119,3380,3029
5119,3380,3029
5119,3380,3031
5121,3384,3031
5121,3384,3030
5117,3382,3030
5117,3382,3032
5114,3377,3032
5114,3377,3027
5105,3376,3027
5105,3376,3028
5101,3377,3028
5101,3377,3024
5098,3376,3024
5098,3376,3026
5095,3371,3026
5095,3371,3029
5097,3374,3029
5097,3374,3028
5092,3372,3028
5092,3372,3025
5091,3371,3025
5091,3371,3027
5089,3367,3027
5089,3367,3028
5087,3366,3028
5087,3366,3030
5086,3362,3030
5086,3362,3028
5089,3365,3028
5089,3365,3025
5096,3361,3025
5096,3361,3029
5098,3359,3029
5098,3359,3029
5100,3361,3029
5100,3361,3027
5099,3369,3027
5099,3369,3027
5107,3367,3027
5107,3367,3028
5102,3376,3028
5102,3376,3025
5102,3378,3025
5102,3378,3025
5108,3380,3025
5108,3380,3026
5106,3382,3026
5106,3382,3025
5108,3385,3025
5108,3385,3026
5106,3388,3026
5106,3388,3026
5105,3385,3026
5105,3385,3027
5104,3384,3027
5104,3384,3022
5106,3382,3022
5106,3382,3028
5107,3378,3028
5107,3378,3025
5108,3380,3025
5108,3380,3027
5106,3384,3027
5106,3384,3026
5110,3382,3026
5110,3382,3022
5121,3383,3022
5121,3383,3028
5116,3379,3028
5116,3379,3021
5119,3383,3021
5119,3383,3026
5117,3379,3026
5117,3379,3028
5118,3377,3028
5118,3377,3029
5113,3377,3029
5113,3377,3027
5110,3379,3027
5110,3379,3034
5110,3389,3034
5110,3389,3028
5108,3386,3028
5108,3386,3027
5111,3390,3027
5111,3390,3028
5108,3390,3028
5108,3390,3026
5107,3388,3026
5107,3388,3027
5110,3386,3027
5110,3386,3026
5114,3381,3026
5114,3381,3026
5111,3385,3026
5111,3385,3019
5117,3385,3019
5117,3380,3019
5117,3380,3013
5113,3377,3013
5113,3377,3013
5112,3370,3013
5112,3370,3008
5106,3367,3008
5106,3367,3011
5110,3369,3011
5110,3369,3009
5111,3369,3009
5111,3369,3013
5109,3373,3013
5109,3373,3022
5109,3382,3022
5109,3382,3024
5108,3384,3024
5108,3384,3025
5106,3389,3025
5106,3389,3029
5107,3385,3029
5107,3385,3027
5108,3386,3027
5108,3386,3028
5103,3387,3028
5103,3387,3028
5107,3382,3028
5107,3382,3027
5106,3387,3027
5106,3387,3029
5105,3388,3029
5105,3388,3031
5111,3393,3031
5111,3393,3028
5111,3384,3028
5111,3384,3032
5114,3386,3032
5114,3386,3029
5119,3393,3029
5119,3393,3032
5117,3386,3032
5117,3386,3031
5116,3386,3031
5116,3387,3027
5113,3387,3027
5113,3388,3031
5109,3388,3031
5109,3384,3029
5110,3384,3029
5110,3383,3030
5111,3383,3030
5111,3386,3030
5111,3386,3030
5111,3387,3024
5113,3387,3024
5113,3388,3025
5107,3388,3025
5107,3392,3017
5110,3392,3017
5110,3388,3020
5105,3388,3020
5105,3387,3016
5103,3387,3016
5103,3389,3015
5100,3389,3015
5100,3387,3014
5095,3387,3014
5095,3390,3015
5087,3390,3015
5087,3384,3012
5087,3384,3012
5087,3385,3010
5085,3385,3010
5085,3388,3015
5086,3392,3021
5089,3395,3021
5089,3395,3022
5085,3396,3022
5085,3396,3024
5090,3391,3024
5090,3391,3027
5096,3390,3027
5096,3390,3031
5101,3392,3031
5101,3392,3027
5100,3392,3027
5100,3395,3038
5102,3395,3038
5102,3396,3040
5112,3396,3040
5112,3392,3035
5105,3392,3035
5105,3390,3045
5104,3390,3045
5104,3389,3042
5109,3389,3042
5109,3390,3041
5107,3390,3041
5107,3388,3040
5116,3388,3040
5116,3390,3041
5115,3390,3041
5115,3391,3039
5114,3391,3039
5114,3389,3039
5108,3389,3039
5108,3385,3037
5114,3385,3037
5114,3389,3035
5109,3389,3035
5109,3386,3035
5108,3386,3035
5108,3383,3032
5114,3383,3032
5114,3389,3035
5105,3389,3035
5105,3385,3035
5116,3385,3035
5116,3390,3040
5114,3390,3040
5114,3395,3035
5108,3395,3035
5108,3394,3037
5113,3394,3037
5113,3390,3036
5109,3390,3036
5109,3390,3038
5114,3390,3038
5114,3392,3042
5110,3392,3042
5110,3396,3040
5105,3396,3040
5105,3390,3040
5105,3390,3040
5105,3394,3040
5104,3394,3037
5104,3390,3037
5107,3390,3038
5107,3390,3038
5102,3390,3041
5102,3394,3041
5106,3394,3034
5106,3390,3034
5108,3390,3030
5108,3387,3030
5105,3387,3029
5105,3383,3029
5107,3383,3025
5107,3380,3025
5107,3380,3025
5107,3372,3025
5104,3372,3026
5104,3374,3026
5097,3374,3031
5097,3372,3031
5105,3372,3037
5105,3374,3037
5103,3374,3040
5103,3375,3040
5109,3375,3039
5109,3380,3039
5111,3380,3041
5111,3390,3041
5110,3390,3042
5110,3387,3042
5112,3387,3042
5112,3389,3041
5111,3389,3041
5111,3385,3041
5111,3385,3039
5111,3388,3039
5116,3388,3039
5116,3388,3041
5111,3388,3041
5111,3393,3041
5111,3393,3041
5111,3391,3044
5114,3391,3044
5114,3387,3040
5116,3387,3040
5116,3387,3038
5114,3387,3038
5114,3387,3042
5114,3386,3042
5113,3386,3038
5113,3387,3038
5113,3387,3038
5113,3386,3038
5111,3386,3041
5111,3387,3041
5104,3387,3041
5104,3387,3040
5104,3387,3040
5107,3387,3042
5107,3386,3042
5108,3386,3038
5108,3387,3038
5110,3387,3039
5110,3385,3039
5109,3385,3045
5109,3383,3045
5110,3383,3049
5110,3382,3049
5102,3382,3039
5102,3386,3039
5105,3386,3046
5105,3382,3046
5104,3382,3052
5104,3391,3052
5110,3391,3048
5110,3389,3048
5103,3389,3046
5103,3398,3046
5104,3398,3045
5104,3393,3045
5104,3393,3047
5104,3390,3047
5104,3390,3047
5104,3392,3047
5101,3392,3053
5101,3390,3053
5103,3390,3051
5103,3390,3051
5099,3390,3053
5099,3384,3053
5103,3384,3043
5103,3392,3043
5108,3392,3044
5108,3390,3044
5108,3390,3047
5108,3387,3047
5110,3387,3047
5110,3381,3047
5106,3381,3047
5106,3382,3047
5105,3382,3044
5105,3382,3044
5104,3382,3044
5104,3380,3044
5099,3380,3046
5099,3378,3046
5092,3378,3045
5092,3374,3045
5097,3374,3046
5097,3369,3046
5090,3369,3046
5090,3364,3046
5093,3364,3045
5093,3370,3045
5088,3370,3044
5088,3362,3044
5082,3362,3046
5082,3369,3046
5081,3369,3045
5081,3370,3045
5086,3370,3047
5086,3373,3047
5090,3373,3046
5090,3373,3046
5098,3373,3042
5098,3375,3042
5100,3375,3046
5100,3373,3046
5102,3373,3042
5102,3373,3042
5104,3373,3046
5104,3375,3046
5102,3375,3047
5102,3378,3047
5105,3378,3046
5105,3381,3046
5103,3381,3043
5103,3380,3043
5107,3380,3045
5107,3383,3045
5108,3383,3051
5108,3378,3051
5103,3378,3046
5103,3382,3046
5102,3382,3050
5102,3390,3050
5105,3390,3050
5105,3385,3050
5104,3385,3052
5104,3388,3052
5104,3388,3050
5104,3385,3050
5102,3385,3048
5102,3383,3048
5102,3383,3046
5102,3383,3046
5099,3383,3047
5099,3378,3047
5100,3378,3033
5100,3380,3033
5100,3380,3033
5100,3376,3033
5105,3376,3033
5105,3374,3033
5113,3374,3032
5113,3376,3032
5115,3376,3034
5115,3374,3034
5115,3374,3043
5115,3374,3043
5124,3374,3050
5124,3376,3050
5117,3376,3055
5117,3378,3055
5116,3378,3048
5116,3383,3048
5112,3383,3054
5112,3383,3054
5110,3383,3053
5110,3384,3053
5112,3384,3048
5112,3380,3048
5112,3380,3053
5110,3380,3053
5110,3383,3053
5110,3383,3053
5110,3380,3053
5110,3380,3050
5106,3380,3050
5106,3386,3050
5106,3386,3052
5105,3386,3052
5105,3388,3052
5105,3388,3047
5104,3388,3047
5104,3384,3047
5104,3384,3047
5104,3384,3047
5104,3380,3047
5104,3380,3048
5102,3380,3048
5102,3383,3048
5102,3383,3039
5098,3383,3039
5098,3379,3039
5098,3379,3044
5095,3379,3044
5095,3382,3044
5090,3382,3041
5090,3376,3041
5090,3376,3037
5088,3376,3037
5088,3382,3037
5088,3382,3041
5084,3382,3041
5084,3380,3041
5084,3380,3037
5083,3380,3037
5083,3385,3037
5083,3385,3041
5084,3385,3041
5084,3387,3041
5087,3387,3045
5087,3389,3045
5087,3389,3041
5089,3389,3041
5089,3386,3041
5089,3386,3049
5087,3386,3049
5087,3385,3049
5087,3385,3050
5090,3385,3050
5090,3389,3050
5090,3389,3054
5090,3389,3054
5090,3388,3054
5090,3388,3053
5096,3388,3053
5096,3387,3053
5099,3387,3053
5099,3382,3053
5099,3382,3055
5097,3382,3055
5097,3383,3055
5097,3383,3054
5100,3383,3054
5100,3383,3054
5100,3383,3058
5100,3383,3058
5100,3385,3058
5100,3385,3061
5098,3385,3061
5098,3386,3061
5108,3386,3053
5108,3389,3053
5111,3389,3058
5111,3384,3058
5116,3384,3061
5116,3384,3061
5116,3384,3063
5116,3383,3063
5116,3383,3055
5116,3383,3055
5116,3383,3055
5116,3383,3058
5115,3383,3058
5115,3383,3058
5115,3383,3058
5118,3383,3058
5118,3390,3058
5118,3390,3063
5112,3390,3063
5112,3382,3063
5112,3382,3059
5112,3381,3059
5112,3381,3061
5118,3381,3061
5118,3384,3061
5118,3384,3060
5109,3384,3060
5109,3386,3060
5109,3386,3057
5114,3386,3057
5114,3388,3057
5114,3388,3059
5112,3388,3059
5112,3385,3059
5112,3385,3060
5112,3385,3060
5112,3389,3060
5112,3389,3061
5116,3389,3061
5116,3386,3061
5116,3386,3064
5111,3386,3064
5111,3384,3064
5111,3384,3058
5112,3384,3058
5112,3382,3058
5112,3382,3056
5117,3382,3056
5117,3384,3056
5117,3384,3061
5113,3384,3061
5113,3378,3061
5113,3378,3056
5116,3378,3056
5116,3384,3056
5116,3384,3057
5115,3384,3057
5115,3388,3057
5115,3388,3061
5111,3388,3061
5111,3386,3061
5111,3386,3060
5112,3386,3060
5112,3387,3060
5112,3387,3067
5111,3387,3067
5111,3390,3067
5111,3390,3058
5108,3390,3058
5108,3389,3058
5108,3389,3060
5105,3389,3060
5105,3392,3060
5105,3392,3063
5108,3392,3063
5108,3387,3063
5108,3387,3066
5105,3387,3066
5105,3390,3066
5105,3390,3064
5111,3390,3064
5111,3385,3064
5111,3385,3070
5112,3385,3070
5112,3388,3070
5112,3388,3057
5107,3388,3057
5107,3386,3057
5107,3386,3069
5106,3386,3069
5106,3385,3069
5106,3385,3065
5102,3385,3065
5102,3385,3065
5102,3385,3069
5115,3385,3069
5115,3389,3069
5115,3389,3058
5114,3389,3058
5114,3388,3058
5114,3388,3054
5114,3388,3054
5114,3380,3054
5114,3380,3051
5120,3380,3051
5120,3375,3051
5120,3375,3049
5122,3375,3049
5122,3368,3049
5122,3368,3046
5123,3368,3046
5123,3372,3046
5123,3372,3052
5120,3372,3052
5120,3369,3052
5120,3369,3060
5125,3369,3060
5125,3373,3060
5125,3373,3066
5118,3373,3066
5118,3375,3066
5118,3375,3066
5118,3375,3066
5118,3377,3066
5118,3377,3067
5117,3377,3067
5117,3386,3067
5117,3386,3072
5112,3386,3072
5112,3388,3072
5112,3388,3066
5118,3388,3066
5118,3386,3066
5118,3386,3069
5111,3386,3069
5111,3386,3069
5111,3386,3064
5113,3386,3064
5113,3388,3064
5113,3388,3071
5114,3388,3071
5114,3391,3071
5114,3391,3065
5113,3391,3065
5113,3383,3065
5113,3383,3068
5110,3383,3068
5110,3386,3068
5110,3386,3068
5115,3386,3068
5115,3385,3068
5115,3385,3072
5117,3385,3072
5117,3386,3072
5117,3386,3065
5116,3386,3065
5116,3392,3065
5116,3392,3068
5116,3392,3068
5116,3387,3068
5116,3387,3067
5114,3387,3067
5114,3387,3067
5114,3387,3068
5115,3387,3068
5115,3386,3068
5115,3386,3069
5113,3386,3069
5113,3387,3069
5113,3387,3073
5110,3387,3073
5110,3390,3073
5110,3390,3071
5115,3390,3071
5115,3391,3071
5115,3391,3070
5109,3391,3070
5109,3380,3070
5109,3380,3073
5112,3380,3073
5112,3389,3073
5112,3389,3070
5110,3389,3070
5110,3387,3070
5110,3387,3074
5108,3387,3074
5108,3392,3074
5108,3392,3074
5109,3392,3074
5109,3387,3074
5109,3387,3073
5108,3387,3073
5108,3393,3073
5108,3393,3069
5111,3393,3069
5111,3393,3069
5111,3393,3074
5108,3393,3074
5108,3395,3074
5108,3395,3079
5115,3395,3079
5115,3396,3079
5115,3396,3079
5111,3396,3079
5111,3389,3079
5111,3389,3078
5114,3389,3078
5114,3395,3078
5114,3395,3074
5123,3395,3074
5123,3390,3074
5123,3390,3074
5125,3390,3074
5125,3393,3074
5125,3393,3073
5125,3393,3073
5125,3387,3073
5125,3387,3073
5124,3387,3073
5124,3392,3073
5124,3392,3074
5124,3392,3074
5124,3391,3074
5124,3391,3072
5121,3391,3072
5121,3393,3072
5121,3393,3076
5122,3393,3076
5122,3389,3076
5122,3389,3075
5113,3389,3075
5113,3388,3075
5113,3388,3074
5117,3388,3074
5117,3396,3074
5117,3396,3071
5112,3396,3071
5112,3394,3071
5112,3394,3075
5117,3394,3075
5117,3389,3075
5117,3389,3074
5113,3389,3074
5113,3390,3074
5113,3390,3079
5118,3390,3079
5118,3389,3079
5118,3389,3080
5119,3389,3080
5119,3389,3080
5119,3389,3078
5119,3389,3078
5119,3391,3078
5119,3391,3074
5112,3391,3074
5112,3390,3074
5112,3390,3072
5111,3390,3072
5111,3390,3072
5111,3390,3075
5106,3390,3075
5106,3385,3075
5106,3385,3074
5102,3385,3074
5102,3385,3074
5102,3385,3075
5096,3385,3075
5096,3380,3075
5096,3380,3076
5096,3380,3076
5096,3386,3076
5096,3386,3078
5092,3386,3078
5092,3381,3078
5092,3381,3080
5095,3381,3080
5095,3382,3080
5095,3382,3076
5086,3382,3076
5086,3376,3076
5086,3376,3076
5083,3376,3076
5083,3378,3076
5083,3378,3078
5088,3378,3078
5088,3376,3078
5088,3376,3078
5089,3376,3078
5089,3371,3078
5089,3371,3085
5095,3371,3085
5095,3379,3085
5095,3379,3079
5098,3379,3079
5098,3377,3079
5098,3377,3079
5099,3377,3079
5099,3380,3079
5099,3380,3077
5102,3380,3077
5102,3380,3077
5102,3380,3080
5105,3380,3080
5105,3381,3080
5105,3381,3078
5110,3381,3078
5110,3385,3078
5110,3385,3085
5113,3385,3085
5113,3385,3085
5113,3385,3078
5118,3385,3078
5118,3385,3078
5118,3385,3080
5129,3385,3080
5129,3385,3080
5129,3385,3076
5127,3385,3076
5127,3388,3076
5127,3388,3065
5130,3388,3065
5130,3390,3065
5130,3390,3065
5127,3390,3065
5127,3381,3065
5127,3381,3064
5131,3381,3064
5131,3375,3064
5131,3375,3065
5120,3375,3065
5120,3376,3065
5120,3376,3068
5118,3376,3068
5118,3378,3068
5118,3378,3070
5123,3378,3070
5123,3378,3070
5123,3378,3076
5118,3378,3076
5118,3386,3076
5118,3386,3073
5116,3386,3073
5116,3387,3073
5116,3387,3076
5119,3387,3076
5119,3397,3076
5119,3397,3072
5110,3397,3072
5110,3397,3072
5110,3397,3070
5115,3397,3070
5115,3390,3070
5115,3390,3066
5112,3390,3066
5112,3395,3066
5112,3395,3072
5109,3395,3072
5109,3395,3072
5109,3395,3069
5109,3395,3069
5109,3394,3069
5109,3394,3065
5102,3394,3065
5102,3398,3065
5099,3398,3065
5099,3400,3063
5097,3400,3063
5097,3393,3065
5094,3393,3065
5094,3399,3072
5100,3399,3072
5100,3397,3072
5100,3397,3077
5100,3397,3077
5100,3395,3077
5100,3395,3078
5100,3395,3078
5100,3393,3078
5100,3393,3079
5099,3393,3079
5099,3392,3079
5099,3392,3079
5099,3402,3083
5104,3402,3083
5104,3397,3082
5114,3397,3082
5114,3398,3083
5112,3398,3083
5112,3394,3086
5115,3394,3086
5115,3403,3086
5115,3403,3081
5119,3403,3081
5119,3401,3081
5119,3401,3088
5115,3401,3088
5115,3403,3085
5115,3403,3085
5115,3403,3083
5115,3403,3083
5115,3397,3089
5117,3397,3089
5117,3397,3089
5122,3397,3089
5122,3398,3086
5124,3398,3086
5124,3398,3084
5123,3398,3084
5123,3396,3089
5126,3396,3089
5126,3398,3085
5135,3398,3085
5135,3407,3085
5127,3407,3085
5127,3402,3086
5128,3402,3086
5128,3407,3088
5121,3407,3088
5121,3406,3084
5120,3406,3084
5120,3400,3084
5123,3400,3084
5123,3399,3085
5121,3399,3085
5121,3400,3088
5119,3400,3088
5119,3402,3084
5124,3402,3084
5124,3406,3089
5122,3406,3089
5122,3404,3091
5125,3404,3091
5125,3402,3086
5123,3402,3086
5123,3406,3085
5123,3406,3085
5123,3409,3090
5121,3409,3090
5121,3409,3084
5124,3409,3084
5124,3408,3086
5118,3408,3086
5118,3403,3084
5120,3403,3084
5120,3404,3089
5121,3404,3089
5121,3408,3087
5123,3408,3087
5123,3401,3091
5118,3401,3091
5118,3408,3092
5118,3408,3092
5118,3412,3087
5120,3412,3087
5120,3412,3089
5122,3412,3089
5122,3410,3093
5121,3410,3093
5121,3405,3089
5121,3405,3089
5121,3409,3091
5116,3409,3091
5116,3407,3090
5119,3407,3090
5119,3409,3092
5121,3409,3092
5121,3409,3090
5121,3409,3090
5120,3409,3090
5120,3409,3093
5120,3407,3093
5127,3407,3093
5127,3407,3087
5127,3409,3087
5134,3409,3087
5134,3407,3086
5134,3407,3086
5134,3407,3088
5134,3407,3088
5134,3402,3085
5137,3402,3085
5137,3406,3081
5135,3406,3081
5135,3405,3085
5127,3405,3085
5127,3408,3081
5126,3408,3081
5126,3404,3079
5125,3404,3079
5125,3401,3078
5127,3401,3078
5127,3398,3076
5126,3398,3076
5126,3394,3074
5124,3394,3074
5124,3394,3075
5132,3394,3075
5132,3394,3081
5132,3399,3081
5128,3399,3081
5128,3399,3082
5128,3402,3082
5127,3402,3082
5127,3406,3084
5127,3406,3084
5127,3406,3087
5127,3412,3087
5131,3412,3087
5131,3412,3090
5131,3408,3090
5128,3408,3090
5128,3408,3091
5128,3408,3091
5127,3408,3091
5127,3408,3085
5127,3411,3085
5125,3411,3085
5125,3411,3090
5125,3407,3090
5123,3407,3090
5123,3407,3093
5123,3412,3093
5122,3412,3093
5122,3410,3086
5123,3410,3086
5123,3410,3086
5123,3409,3086
5120,3409,3086
5120,3409,3084
5120,3412,3084
5123,3412,3084
5123,3412,3092
5123,3413,3092
5121,3413,3092
5121,3413,3086
5121,3416,3086
5123,3416,3086
5123,3416,3089
5123,3413,3089
5123,3413,3089
5123,3413,3089
5123,3415,3089
5117,3415,3089
5117,3415,3090
5117,3411,3090
5121,3411,3090
5121,3411,3093
5121,3413,3093
5123,3413,3093
5123,3413,3096
5123,3415,3096
5126,3415,3096
5126,3415,3094
5126,3410,3094
5130,3410,3094
5130,3410,3088
5130,3412,3088
5138,3412,3088
5138,3412,3095
5138,3410,3095
5131,3410,3095
5131,3410,3091
5131,3412,3091
5141,3412,3091
5141,3412,3089
5141,3418,3089
5131,3418,3089
5131,3418,3095
5131,3407,3095
5136,3407,3095
5136,3407,3088
5136,3410,3088
5130,3410,3088
5130,3410,3088
5130,3409,3088
5136,3409,3088
5136,3409,3087
5136,3410,3087
5129,3410,3087
5129,3410,3082
5129,3409,3082
5134,3409,3082
5134,3409,3084
5134,3412,3084
5130,3412,3084
5130,3412,3086
5130,3415,3086
5132,3415,3086
5132,3415,3090
5132,3413,3090
5129,3413,3090
5129,3413,3087
5129,3411,3087
5128,3411,3087
5128,3411,3090
5128,3406,3090
5130,3406,3090
5130,3406,3092
5130,3410,3092
5130,3410,3092
5130,3410,3080
5130,3408,3080
5131,3408,3080
5131,3408,3086
5131,3410,3086
5133,3410,3086
5133,3410,3084
5133,3411,3084
5127,3411,3084
5127,3411,3089
5127,3411,3089
5132,3411,3089
5132,3411,3084
5132,3414,3084
5128,3414,3084
5128,3414,3091
5128,3407,3091
5126,3407,3091
5126,3407,3090
5126,3413,3090
5126,3413,3090
5126,3413,3087
5126,3412,3087
5125,3412,3087
5125,3412,3089
5125,3413,3089
5127,3413,3089
5127,3413,3086
5127,3411,3086
5125,3411,3086
5125,3411,3085
5125,3410,3085
5124,3410,3085
5124,3410,3091
5124,3413,3091
5124,3413,3091
5124,3413,3087
5124,3414,3087
5124,3414,3087
5124,3414,3089
5124,3416,3089
5125,3416,3089
5125,3416,3090
5125,3413,3090
5123,3413,3090
5123,3413,3086
5123,3412,3086
5126,3412,3086
5126,3412,3089
5126,3415,3089
5134,3415,3089
5134,3415,3088
5134,3409,3088
5130,3409,3088
5130,3409,3088
5130,3411,3088
5140,3411,3088
5140,3411,3090
5140,3406,3090
5135,3406,3090
5135,3406,3084
5135,3412,3084
5137,3412,3084
5137,3412,3085
5137,3410,3085
5139,3410,3085
5139,3410,3086
5139,3411,3086
5140,3411,3086
5140,3411,3081
5140,3406,3081
5136,3406,3081
5136,3406,3089
5136,3407,3089
5130,3407,3089
5130,3407,3080
5130,3409,3080
5128,3409,3080
5128,3409,3079
5128,3411,3079
5136,3411,3079
5136,3411,3075
5136,3407,3075
5123,3407,3075
5123,3407,3075
5123,3409,3075
5117,3409,3075
5117,3409,3069
5117,3406,3069
5113,3406,3069
5113,3406,3067
5113,3408,3067
5108,3408,3067
5108,3408,3065
5108,3406,3065
5102,3406,3065
5102,3406,3058
5102,3405,3058
5092,3405,3058
5092,3405,3056
5092,3396,3056
5088,3396,3056
5088,3396,3052
5088,3390,3052
5090,3390,3052
5090,3390,3051
5090,3386,3051
5079,3386,3051
5079,3386,3058
5079,3378,3058
5086,3378,3058
5086,3378,3060
5086,3379,3060
5080,3379,3060
5080,3379,3066
5080,3377,3066
5090,3377,3066
5090,3377,3079
5090,3374,3079
5084,3374,3079
5084,3374,3077
5084,3382,3077
5094,3382,3077
5094,3382,3078
5094,3391,3078
5097,3391,3078
5097,3391,3077
5097,3394,3077
5104,3394,3077
5104,3394,3082
5104,3394,3082
5109,3394,3082
5109,3394,3078
5109,3393,3078
5121,3393,3078
5121,3393,3078
5121,3396,3078
5118,3396,3078
5118,3396,3081
5118,3397,3081
5123,3397,3081
5123,3397,3085
5123,3401,3085
5120,3401,3085
5120,3401,3082
5120,3401,3082
5125,3401,3082
5125,3401,3077
5125,3397,3077
5133,3397,3077
5133,3397,3082
5133,3405,3082
5138,3405,3082
5138,3405,3080
5138,3404,3080
5137,3404,3080
5137,3404,3078
5137,3409,3078
5134,3409,3078
5134,3409,3078
5134,3408,3078
5138,3408,3078
5138,3408,3080
5138,3405,3080
5133,3405,3080
5133,3405,3078
5133,3411,3078
5138,3411,3078
5138,3411,3076
5138,3405,3076
5134,3405,3076
5134,3405,3076
5134,3408,3076
5133,3408,3076
5133,3408,3080
5133,3405,3080
5131,3405,3080
5131,3405,3079
5131,3410,3079
5129,3410,3079
5129,3410,3077
5129,3407,3077
5131,3407,3077
5131,3407,3078
5131,3402,3078
5133,3402,3078
5133,3402,3083
5133,3401,3083
5133,3401,3083
5133,3401,3076
5133,3404,3076
5133,3404,3076
5133,3404,3078
5133,3403,3078
5136,3403,3078
5136,3403,3075
5136,3401,3075
5128,3401,3075
5128,3401,3083
5128,3401,3083
5134,3401,3083
5134,3401,3079
5134,3402,3079
5131,3402,3079
5131,3402,3074
5131,3407,3074
5129,3407,3074
5129,3407,3075
5129,3403,3075
5125,3403,3075
5125,3403,3077
5125,3408,3077
5124,3408,3077
5124,3408,3080
5124,3407,3080
5118,3407,3080
5118,3407,3080
5118,3407,3080
5125,3407,3080
5125,3407,3081
5125,3408,3081
5118,3408,3081
5118,3408,3079
5118,3402,3079
5127,3402,3079
5127,3402,3081
5127,3405,3081
5125,3405,3081
5125,3405,3079
5125,3408,3079
5123,3408,3079
5123,3408,3080
5123,3406,3080
5124,3406,3080
5124,3406,3084
5124,3408,3084
5126,3408,3084
5126,3408,3077
5126,3401,3077
5124,3401,3077
5124,3401,3075
5124,3404,3075
5131,3404,3075
5131,3404,3082
5131,3399,3082
5132,3399,3082
5132,3399,3076
5132,3404,3076
5134,3404,3076
5134,3404,3076
5134,3401,3076
5143,3401,3076
5143,3401,3071
5143,3396,3071
5136,3396,3071
5136,3396,3075
5136,3394,3075
5139,3394,3075
5139,3394,3073
5139,3396,3073
5135,3396,3073
5135,3396,3073
5135,3396,3073
5132,3396,3073
5132,3396,3074
5132,3395,3074
5129,3395,3074
5129,3395,3078
5129,3395,3078
5133,3395,3078
5133,3395,3077
5133,3395,3077
5129,3395,3077
5129,3395,3073
5129,3399,3073
5131,3399,3073
5131,3399,3076
5131,3394,3076
5128,3394,3076
5128,3394,3080
5128,3398,3080
5125,3398,3080
5125,3398,3075
5125,3396,3075
5130,3396,3075
5130,3396,3073
5130,3391,3073
5126,3391,3073
5126,3391,3077
5126,3395,3077
5131,3395,3077
5131,3395,3073
5131,3393,3073
5125,3393,3073
5125,3393,3080
5125,3391,3080
5122,3391,3080
5122,3391,3076
5122,3393,3076
5127,3393,3076
5127,3393,3071
5127,3393,3071
5121,3393,3071
5121,3393,3070
5121,3394,3070
5126,3394,3070
5126,3394,3074
5126,3392,3074
5122,3392,3074
5122,3392,3076
5122,3395,3076
5125,3395,3076
5125,3395,3073
5125,3396,3073
5120,3396,3073
5120,3396,3066
5120,3391,3066
5122,3391,3066
5122,3391,3064
5122,3384,3064
5123,3384,3064
5123,3384,3056
5123,3380,3056
5115,3380,3056
5115,3380,3059
5115,3378,3059
5125,3378,3059
5125,3378,3060
5125,3372,3060
5119,3372,3060
5119,3372,3063
5119,3378,3063
5118,3378,3063
5118,3378,3064
5118,3373,3064
5126,3373,3064
5126,3373,3070
5126,3380,3070
5123,3380,3070
5123,3380,3073
5123,3384,3073
5129,3384,3073
5129,3384,3072
5129,3392,3072
5134,3392,3072
5134,3392,3080
5134,3389,3080
5130,3389,3080
5130,3389,3073
5130,3386,3073
5138,3386,3073
5138,3386,3073
5138,3387,3073
5131,3387,3073
5131,3387,3073
5131,3389,3073
5123,3389,3073
5123,3389,3076
5123,3386,3076
5131,3386,3076
5131,3386,3073
5131,3394,3073
5124,3394,3073
5124,3394,3075
5124,3381,3075
5122,3381,3075
5122,3381,3077
5122,3391,3077
5117,3391,3077
5117,3391,3076
5117,3385,3076
5123,3385,3076
5123,3385,3075
5123,3392,3075
5122,3392,3075
5122,3392,3077
5122,3388,3077
5122,3388,3077
5122,3388,3079
5122,3384,3079
5123,3384,3079
5123,3384,3080
5123,3384,3080
5122,3384,3080
5122,3384,3074
5121,3383,3074
5121,3383,3073
5122,3380,3073
5122,3380,3080
5122,3383,3080
5123,3383,3080
5123,3383,3080
5123,3382,3080
5122,3382,3080
5122,3382,3077
5122,3380,3077
5118,3380,3077
5118,3380,3073
5118,3383,3073
5115,3383,3073
5115,3383,3081
5115,3381,3081
5112,3381,3081
5112,3381,3082
5114,3381,3082
5114,3381,3079
5117,3387,3079
5117,3387,3078
5117,3386,3078
5117,3386,3078
5117,3386,3082
5117,3377,3082
5115,3377,3082
5115,3377,3078
5115,3384,3078
5118,3384,3078
5118,3384,3078
5117,3384,3078
5117,3384,3082
5116,3385,3082
5116,3385,3080
5117,3389,3080
5117,3389,3083
5116,3388,3083
5116,3388,3079
5122,3378,3079
5122,3378,3079
5128,3381,3079
5128,3381,3080
5131,3380,3080
5131,3380,3083
5124,3382,3083
5124,3382,3084
5129,3382,3084
5129,3382,3081
5131,3380,3081
5131,3380,3077
5122,3378,3077
5122,3378,3079
5122,3378,3079
5120,3378,3083
5118,3378,3083
5118,3378,3077
5118,3378,3077
5120,3378,3077
5120,3378,3083
5115,3381,3083
5115,3381,3087
5117,3379,3087
5117,3379,3079
5125,3381,3079
5125,3381,3076
5123,3374,3076
5123,3374,3074
5123,3376,3074
5122,3376,3074
5122,3376,3074
5122,3379,3074
5118,3379,3074
5118,3379,3073
5118,3377,3073
5117,3377,3068
5114,3380,3068
5114,3380,3070
5106,3378,3070
5106,3378,3066
5102,3383,3066
5102,3383,3068
5096,3384,3068
5096,3384,3069
5098,3386,3069
5098,3386,3068
5097,3382,3068
5097,3382,3070
5086,3379,3070
5086,3379,3070
5095,3384,3070
5095,3384,3076
5092,3378,3076
5092,3378,3077
5102,3384,3077
5102,3384,3083
5103,3381,3083
5103,3381,3082
5106,3380,3082
5106,3380,3086
5109,3379,3086
5109,3379,3083
5115,3375,3083
5115,3375,3087
5123,3379,3087
5123,3379,3086
5122,3376,3086
5122,3376,3080
5125,3373,3080
5125,3373,3077
5124,3373,3077
5124,3373,3076
5129,3365,3076
5129,3365,3072
5119,3363,3072
5119,3363,3063
5119,3360,3063
5121,3360,3067
5121,3353,3067
5118,3353,3075
5117,3355,3075
5117,3355,3078
5117,3360,3078
5116,3360,3084
5116,3374,3084
5116,3374,3085
5116,3381,3085
5120,3381,3088
5118,3378,3086
5120,3378,3083
5119,3372,3088
5110,3375,3088
5109,3373,3088
5109,3373,3084
5107,3370,3084
5103,3369,3084
5103,3369,3085
5094,3366,3085
5094,3366,3080
5097,3364,3080
5097,3364,3083
5089,3362,3083
5089,3362,3086
5084,3360,3086
5084,3360,3088
5084,3361,3087
5083,3355,3087
5083,3355,3090
5081,3354,3090
5081,3354,3091
5077,3354,3091
5077,3354,3094
5084,3354,3094
5084,3354,3092
5094,3349,3092
5094,3349,3100
5102,3352,3100
5102,3352,3095
5107,3360,3095
5107,3360,3094
5114,3359,3094
5114,3359,3091
5116,3360,3091
5116,3360,3091
5119,3361,3091
5119,3361,3091
5120,3359,3091
5120,3359,3089
5120,3360,3089
5120,3360,3089
5119,3363,3089
5119,3363,3085
5116,3367,3089
5115,3365,3087
5115,3370,3089
5118,3366,3084
5115,3358,3084
5117,3364,3083
5119,3363,3084
5119,3361,3085
5119,3366,3086
5120,3363,3087
5114,3362,3084
5117,3362,3087
5111,3361,3084
5112,3358,3084
5109,3360,3086
5108,3358,3088
5106,3356,3086
5105,3368,3088
5107,3367,3085
5107,3367,3085
5107,3366,3086
5111,3363,3084
5110,3363,3083
5110,3363,3083
5108,3363,3084
5108,3362,3084
5110,3362,3084
5110,3363,3084
5118,3363,3086
5118,3362,3086
5123,3362,3083
5123,3355,3083
5120,3355,3084
5120,3357,3084
5121,3357,3089
5121,3355,3089
5121,3355,3082
5121,3354,3082
5118,3354,3084
5118,3353,3084
5120,3353,3085
5120,3355,3085
5113,3355,3085
5113,3353,3085
5115,3353,3085
5115,3355,3085
5112,3355,3078
5112,3353,3078
5107,3353,3088
5107,3356,3088
5107,3356,3083
5107,3355,3083
5111,3355,3078
5111,3352,3078
5111,3352,3083
5111,3354,3083
5116,3351,3073
5116,3351,3065
5116,3349,3065
5115,3341,3061
5111,3338,3060
5106,3338,3061
5106,3336,3061
5110,3341,3066
5108,3341,3071
5108,3339,3071
5109,3339,3071
5109,3343,3071
5108,3343,3075
5108,3347,3075
5110,3347,3074
5110,3352,3074
5109,3352,3077
5109,3352,3077
5102,3352,3075
5102,3353,3075
5104,3353,3079
5104,3357,3079
5101,3357,3074
5101,3350,3074
5101,3350,3076
5101,3357,3076
5104,3357,3077
5104,3352,3077
5103,3352,3075
5103,3358,3075
5105,3358,3080
5105,3354,3080
5107,3354,3080
5107,3356,3080
5113,3356,3081
5113,3349,3081
5115,3349,3077
5115,3352,3077
5116,3352,3079
5116,3346,3079
5116,3346,3074
5116,3352,3074
5116,3352,3077
5116,3351,3077
5116,3351,3071
5111,3349,3071
5111,3349,3074
5110,3347,3074
5110,3347,3073
5107,3347,3073
5107,3347,3072
5107,3347,3072
5107,3347,3072
5105,3346,3072
5105,3346,3069
5107,3350,3069
5107,3350,3070
5103,3347,3070
5103,3347,3073
5108,3348,3073
5108,3348,3071
5109,3345,3071
5109,3345,3072
5109,3344,3072
5109,3344,3071
5105,3342,3071
5105,3342,3069
5109,3341,3069
5109,3341,3067
5103,3341,3067
5103,3344,3067
5103,3344,3064
5101,3344,3064
5101,3344,3064
5099,3340,3064
5099,3340,3060
5097,3344,3060
5097,3344,3059
5088,3342,3059
5084,3342,3056
5084,3344,3056
5085,3344,3054
5085,3340,3054
5080,3340,3053
5080,3337,3053
5080,3337,3052
5080,3340,3052
5071,3340,3052
5071,3339,3052
5082,3339,3052
5082,3349,3052
5081,3349,3052
5081,3345,3052
5084,3345,3057
5084,3348,3057
5085,3348,3056
5085,3345,3056
5088,3345,3063
5088,3345,3063
5093,3345,3064
5093,3344,3064
5093,3344,3063
5095,3343,3063
5095,3343,3064
5101,3340,3064
5105,3340,3066
5105,3340,3066
5105,3340,3066
5101,3339,3066
5101,3339,3064
5099,3334,3064
5099,3334,3069
5107,3335,3069
5107,3335,3063
5108,3335,3063
5108,3335,3063
5108,3335,3058
5102,3339,3058
5102,3339,3058
5101,3337,3058
5101,3337,3063
5105,3337,3063
5105,3338,3063
5105,3338,3060
5100,3338,3060
5100,3335,3060
5104,3335,3059
5104,3335,3059
5104,3335,3064
5104,3335,3064
5104,3333,3064
5104,3333,3062
5096,3333,3062
5096,3329,3062
5096,3329,3062
5101,3329,3062
5101,3334,3062
5101,3334,3062
5102,3334,3062
5102,3337,3062
5102,3337,3066
5095,3337,3066
5095,3341,3066
5095,3341,3063
5092,3341,3063
5092,3339,3063
5092,3339,3059
5094,3339,3059
5094,3342,3059
5094,3342,3058
5092,3342,3058
5092,3340,3058
5092,3340,3053
5091,3340,3053
5091,3334,3053
5091,3334,3051
5087,3334,3051
5087,3332,3051
5087,3332,3042
5096,3332,3042
5096,3323,3042
5096,3323,3045
5086,3323,3045
5086,3321,3045
5086,3321,3041
5088,3321,3041
5088,3323,3041
5088,3323,3050
5095,3323,3050
5095,3321,3050
5095,3321,3055
5099,3321,3055
5099,3323,3055
5099,3323,3055
5090,3323,3055
5090,3332,3055
5090,3332,3053
5094,3332,3053
5094,3332,3053
5094,3332,3055
5096,3332,3055
5096,3337,3055
5096,3337,3057
5094,3337,3057
5094,3338,3057
5094,3338,3055
5094,3338,3055
5094,3343,3055
5094,3343,3061
5103,3343,3061
5103,3336,3061
5103,3336,3058
5099,3336,3058
5099,3333,3058
5099,3333,3055
5101,3333,3055
5101,3338,3055
5101,3338,3054
5103,3338,3054
5103,3333,3054
5103,3333,3047
5101,3333,3047
5101,3335,3047
5101,3335,3050
5100,3335,3050
5100,3335,3050
5100,3335,3053
5100,3335,3053
5100,3342,3053
5100,3342,3047
5097,3342,3047
5097,3330,3047
5097,3330,3045
5096,3330,3045
5096,3333,3045
5096,3333,3047
5091,3333,3047
5091,3333,3047
5091,3333,3044
5094,3333,3044
5094,3330,3044
5094,3330,3042
5092,3330,3042
5092,3334,3042
5092,3334,3042
5090,3334,3042
5090,3332,3042
5090,3332,3043
5095,3332,3043
5095,3334,3043
5095,3334,3043
5096,3334,3043
5096,3333,3043
5096,3333,3041
5095,3333,3041
5095,3332,3041
5095,3332,3042
5095,3332,3042
5095,3330,3042
5095,3330,3044
5090,3330,3044
5090,3328,3044
5090,3328,3042
5089,3328,3042
5089,3328,3042
5089,3328,3043
5083,3328,3043
5083,3334,3043
5083,3334,3034
5080,3334,3034
5080,3330,3034
5080,3330,3042
5071,3330,3042
5071,3331,3042
5071,3331,3036
5074,3331,3036
5074,3325,3036
5074,3325,3040
5065,3325,3040
5065,3325,3040
5065,3325,3040
5067,3325,3040
5067,3330,3040
5067,3330,3038
5065,3330,3038
5065,3322,3038
5065,3322,3036
5061,3322,3036
5061,3319,3036
5061,3319,3037
5062,3319,3037
5062,3316,3037
5062,3316,3037
5056,3316,3037
5056,3322,3037
5056,3322,3036
5061,3322,3036
5061,3312,3036
5061,3312,3034
5058,3312,3034
5058,3318,3034
5058,3318,3040
5060,3318,3040
5060,3317,3040
5060,3317,3036
5064,3317,3036
5064,3321,3036
5064,3321,3038
5066,3321,3038
5066,3322,3038
5066,3322,3040
5075,3322,3040
5075,3320,3040
5075,3320,3037
5075,3320,3037
5075,3321,3037
5075,3321,3035
5080,3321,3035
5080,3321,3035
5080,3321,3035
5085,3321,3035
5085,3322,3035
5085,3322,3030
5090,3322,3030
5090,3325,3030
5090,3325,3036
5093,3325,3036
5093,3324,3036
5093,3324,3038
5091,3324,3038
5091,3323,3038
5091,3323,3027
5089,3323,3027
5089,3330,3027
5089,3330,3023
5091,3330,3023
5091,3329,3023
5091,3329,3030
5086,3329,3030
5086,3326,3030
5086,3326,3025
5093,3326,3025
5093,3327,3025
5093,3327,3022
5086,3327,3022
5086,3332,3022
5086,3332,3025
5081,3332,3025
5081,3326,3025
5081,3326,3021
5089,3326,3021
5089,3329,3021
5089,3329,3024
5086,3329,3024
5086,3324,3024
5086,3324,3029
5086,3324,3029
5086,3330,3029
5086,3330,3021
5089,3330,3021
5089,3326,3021
5089,3326,3020
5083,3326,3020
5083,3329,3020
5083,3329,3022
5087,3329,3022
5087,3329,3022
5087,3329,3020
5082,3329,3020
5082,3326,3020
5082,3326,3019
5083,3326,3019
5083,3330,3019
5083,3330,3018
5085,3330,3018
5085,3329,3018
5085,3329,3019
5084,3329,3019
5084,3331,3019
5084,3331,3016
5086,3331,3016
5086,3326,3016
5086,3326,3014
5083,3326,3014
5083,3328,3014
5083,3328,3015
5080,3328,3015
5080,3329,3015
5080,3329,3010
5082,3329,3010
5082,3324,3010
5082,3324,3003
5077,3324,3003
5077,3323,3003
5077,3323,3002
5078,3323,3002
5078,3322,3002
5078,3322,3000
5079,3322,3000
5079,3317,3000
5079,3317,2993
5074,3317,2993
5074,3308,2993
5074,3308,3004
5080,3308,3004
5080,3316,3004
5080,3316,3005
5071,3316,3005
5071,3315,3005
5071,3315,3011
5083,3315,3011
5083,3315,3011
5083,3315,3017
5078,3315,3017
5078,3322,3017
5078,3322,3008
5070,3322,3008
5070,3329,3008
5070,3329,3021
5077,3329,3021
5077,3333,3021
5077,3333,3019
5075,3333,3019
5075,3331,3019
5075,3331,3017
5080,3331,3017
5080,3331,3017
5080,3331,3016
5081,3331,3016
5081,3332,3016
5081,3332,3014
5088,3332,3014
5088,3329,3014
5088,3329,3014
5091,3329,3014
5091,3328,3014
5091,3328,3013
5092,3328,3013
5092,3327,3013
5092,3327,3011
5079,3327,3011
5079,3325,3011
5079,3325,3014
5085,3325,3014
5085,3329,3014
5085,3329,3012
5081,3329,3012
5081,3325,3012
5081,3325,3010
5083,3325,3010
5083,3323,3010
5083,3323,3009
5083,3323,3009
5083,3331,3009
5083,3331,3008
5081,3331,3008
5081,3325,3008
5081,3325,3007
5080,3325,3007
5080,3323,3007
5080,3323,3012
5076,3323,3012
5076,3331,3012
5076,3331,3009
5081,3331,3009
5081,3328,3009
5081,3328,3003
5081,3328,3003
5081,3326,3003
5081,3326,3002
5077,3326,3002
5077,3329,3002
5077,3329,3000
5081,3329,3000
5081,3330,3000
5081,3330,2995
5072,3330,2995
5072,3328,2995
5072,3328,2990
5074,3328,2990
5074,3330,2990
5074,3330,2991
5070,3330,2991
5070,3329,2991
5070,3329,2988
5058,3329,2988
5058,3327,2988
5058,3327,2991
5057,3327,2991
5057,3332,2991
5057,3332,2988
5052,3332,2988
5052,3330,2988
5052,3330,2988
5050,3330,2988
5050,3325,2988
5050,3325,2984
5051,3325,2984
5051,3327,2984
5051,3327,2993
5051,3327,2993
5051,3333,2993
5051,3333,2997
5054,3333,2997
5054,3330,2997
5054,3330,2999
5056,3330,2999
5056,3332,2999
5056,3332,3000
5053,3332,3000
5053,3331,3000
5053,3331,2996
5061,3331,2996
5061,3327,2996
5061,3327,2999
5059,3327,2999
5059,3330,2999
5059,3330,3005
5062,3330,3005
5062,3328,3005
5062,3328,3002
5063,3328,3002
5063,3337,3002
5063,3337,3000
5072,3337,3000
5072,3332,3000
5072,3332,3006
5074,3332,3006
5074,3330,3006
5074,3330,3005
5078,3330,3005
5078,3329,3005
5078,3329,3003
5077,3329,3003
5077,3331,3003
5077,3331,2998
5081,3331,2998
5081,3331,2998
5081,3331,3003
5083,3331,3003
5083,3327,3003
5083,3327,2999
5085,3327,2999
5085,3327,2999
5085,3327,2999
5082,3327,2999
5082,3327,2999
5082,3327,2999
5075,3327,2999
5075,3325,2999
5075,3325,2997
5079,3325,2997
5079,3330,2997
5079,3330,2998
5072,3330,2998
5072,3327,2998
5072,3327,2999
5069,3327,2999
5069,3326,2999
5069,3326,2996
5077,3326,2996
5077,3326,2996
5077,3326,2997
5067,3326,2997
5067,3325,2997
5067,3325,2995
5073,3325,2995
5073,3331,2995
5073,3331,2991
5074,3331,2991
5074,3332,2991
5074,3332,2999
5076,3332,2999
5076,3326,2999
5076,3326,2998
5072,3326,2998
5072,3324,2998
5072,3324,2998
5073,3324,2998
5073,3328,2998
5073,3328,2996
5071,3328,2996
5071,3325,2996
5071,3325,2995
5074,3325,2995
5074,3326,2995
5074,3326,3000
5066,3326,3000
5066,3325,3000
5066,3325,2994
5071,3325,2994
5071,3327,2994
5071,3327,2998
5067,3327,2998
5067,3333,2998
5067,3333,2995
5069,3333,2995
5069,3326,2995
5069,3326,2993
5060,3326,2993
5060,3331,2993
5060,3331,2996
5065,3331,2996
5065,3328,2996
5065,3328,2995
5061,3328,2995
5061,3329,2995
5061,3329,2991
5063,3329,2991
5063,3323,2991
5063,3323,2984
5065,3323,2984
5065,3320,2984
5065,3320,2984
5064,3320,2984
5064,3317,2984
5064,3317,2977
5063,3317,2977
5063,3319,2977
5063,3319,2977
5062,3319,2977
5062,3314,2977
5062,3314,2979
5064,3314,2979
5064,3314,2979
5064,3314,2991
5062,3314,2991
5062,3318,2991
5062,3318,2988
5061,3318,2988
5061,3321,2988
5061,3321,3000
5067,3321,3000
5067,3327,3000
5067,3327,2998
5066,3327,2998
5066,3329,2998
5066,3329,3005
5070,3329,3005
5070,3329,3005
5070,3329,2997
5078,3329,2997
5078,3326,2997
5078,3326,2997
5078,3326,2997
5078,3326,2997
5078,3326,2995
5072,3326,2995
5072,3328,2995
5072,3328,2994
5072,3328,2994
5072,3323,2994
5072,3323,2992
5071,3323,2992
5071,3322,2992
5071,3322,2992
5075,3322,2992
5075,3328,2992
5075,3328,2994
5070,3328,2994
5070,3323,2996
5071,3323,2996
5071,3332,2995
5068,3332,2995
5068,3325,2995
5068,3325,2995
5065,3325,2995
5065,3330,2995
5065,3330,2994
5066,3330,2994
5066,3326,2994
5066,3326,2994
5066,3326,2994
5066,3325,2994
5066,3325,2994
5068,3325,2994
5068,3327,2995
5065,3327,2995
5065,3325,2993
5067,3325,2993
5067,3329,2995
5067,3329,2995
5067,3322,3000
5067,3322,3000
5067,3328,2996
5058,3328,2996
5058,3329,2995
5064,3329,2995
5064,3325,2993
5058,3325,2993
5058,3326,2989
5062,3326,2989
5062,3325,2993
5063,3325,2993
5063,3327,2991
5065,3327,2991
5065,3326,2993
5059,3326,2993
5059,3325,2999
5061,3325,2999
5061,3319,2992
5060,3319,2992
5060,3328,2995
5063,3328,2995
5063,3324,2993
5057,3324,2993
5057,3329,2993
5052,3329,2993
5052,3327,2995
5054,3327,2995
5054,3327,2994
5060,3327,2994
5060,3324,2999
5056,3324,2999
5056,3325,2995
5060,3325,2995
5060,3322,2999
5063,3322,2999
5063,3330,2999
5066,3330,2999
5066,3323,2996
5065,3323,2996
5065,3329,2999
5062,3329,2999
5062,3321,2995
5060,3321,2995
5060,3322,2992
5055,3322,2992
5055,3328,2998
5052,3328,2998
5052,3323,2993
5043,3323,2993
5043,3323,2995
5040,3323,2995
5040,3315,2998
5041,3315,2998
5041,3314,2996
5038,3314,2996
5038,3311,2994
5034,3311,2994
5034,3309,2998
5033,3309,2998
5033,3306,2990
5039,3306,2990
5039,3306,2991
5035,3306,2991
5035,3306,2994
5035,3311,2994
5038,3311,2994
5038,3307,2993
5047,3307,2993
5047,3314,2994
5051,3314,2994
5051,3311,2996
5051,3311,2996
5051,3310,2998
5053,3310,2998
5053,3311,2996
5050,3311,2996
5050,3315,2987
5050,3315,2987
5050,3312,3000
5050,3312,3000
5050,3318,2992
5052,3318,2992
5052,3322,2991
5050,3322,2991
5050,3323,2993
5051,3323,2993
5051,3321,2996
5051,3321,2996
5051,3327,2993
5052,3327,2993
5052,3328,2997
5057,3328,2997
5057,3326,2987
5057,3326,2987
5057,3326,2984
5057,3326,2984
5053,3326,2984
5053,3326,2983
5053,3322,2983
5051,3322,2983
5051,3322,2987
5051,3316,2987
5059,3316,2987
5059,3315,2980
5055,3315,2980
5055,3314,2986
5050,3314,2986
5050,3311,2992
5053,3311,2992
5053,3311,2995
5053,3313,2995
5060,3313,2995
5060,3313,3000
5060,3315,3000
5067,3315,3000
5067,3315,3006
5067,3324,3006
5062,3324,3006
5062,3324,3006
5062,3324,3006
5064,3324,3006
5064,3326,2998
5060,3326,2998
5060,3327,2995
5058,3327,2995
5058,3327,2991
5058,3324,2991
5057,3324,2991
5057,3324,2997
5057,3328,2997
5049,3328,2997
5049,3328,2989
5049,3327,2989
5047,3327,2989
5047,3327,2984
5047,3323,2984
5042,3323,2984
5042,3323,2982
5042,3324,2982
5041,3324,2982
5041,3324,2988
5041,3330,2988
5040,3330,2988
5040,3330,2984
5040,3324,2984
5034,3324,2984
5034,3324,2984
5034,3329,2984
5035,3329,2984
5035,3329,2983
5035,3327,2983
5034,3327,2983
5034,3327,2985
5034,3328,2985
5035,3328,2985
5035,3328,2992
5035,3325,2992
5036,3325,2992
5036,3325,2992
5036,3324,2992
5037,3324,2992
5037,3324,2995
5037,3329,2995
5034,3329,2995
5034,3329,2998
5034,3323,2998
5039,3323,2998
5039,3323,2994
5039,3320,2994
5038,3320,2994
5038,3320,3000
5038,3326,3000
5042,3326,3000
5042,3326,3002
5042,3322,3002
5049,3322,3002
5049,3322,2999
5049,3326,2999
5057,3326,2999
5057,3326,3003
5057,3327,3003
5049,3327,3003
5049,3327,3003
5049,3327,3003
5051,3327,3003
5051,3327,3001
5051,3325,3001
5047,3325,3001
5047,3325,3004
5047,3327,3004
5052,3327,3004
5052,3327,3003
5052,3328,3003
5049,3328,3003
5049,3328,3002
5049,3324,3002
5051,3324,3002
5051,3324,3004
5051,3326,3004
5046,3326,3004
5046,3326,3008
5046,3328,3008
5050,3328,3008
5050,3328,3005
5050,3331,3005
5047,3331,3005
5047,3331,3005
5047,3324,3005
5060,3324,3005
5060,3324,3007
5060,3327,3007
5061,3327,3007
5061,3327,3004
5061,3327,3004
5061,3327,3004
5061,3327,3003
5061,3319,3003
5054,3319,3003
5054,3319,3001
5054,3323,3001
5056,3323,3001
5056,3323,3005
5056,3323,3005
5056,3323,3005
5056,3323,3003
5056,3323,3003
5052,3323,3003
5052,3323,3005
5052,3321,3005
5047,3321,3005
5047,3321,3001
5047,3318,3001
5051,3318,3001
5051,3318,3003
5051,3321,3003
5053,3321,3003
5053,3321,3005
5053,3319,3005
5049,3319,3005
5049,3319,3004
5049,3320,3004
5048,3320,3004
5048,3320,3003
5048,3321,3003
5052,3321,3003
5052,3321,3004
5052,3316,3004
5053,3316,3004
5053,3316,3005
5053,3321,3005
5047,3321,3005
5047,3321,3000
5047,3317,3000
5050,3317,3000
5050,3317,3006
5050,3319,3006
5047,3319,3006
5047,3319,3005
5047,3322,3005
5052,3322,3005
5052,3322,3003
5052,3319,3003
5049,3319,3003
5049,3319,3004
5049,3322,3004
5045,3322,3004
5045,3322,3003
5045,3316,3003
5047,3316,3003
5047,3316,3003
5047,3321,3003
5047,3321,3003
5047,3321,3010
5047,3320,3010
5046,3320,3010
5046,3320,3008
5046,3322,3008
5045,3322,3008
5045,3322,3004
5045,3321,3004
5043,3321,3004
5043,3321,3004
5043,3315,3004
5044,3315,3004
5044,3315,3009
5044,3323,3009
5041,3323,3009
5041,3323,3001
5041,3320,3001
5041,3320,3001
5041,3320,3001
5041,3323,3001
5039,3323,3001
5039,3323,3007
5039,3320,3007
5040,3320,3007
5040,3320,3013
5040,3322,3013
5042,3322,3013
5042,3322,3005
5042,3320,3005
5049,3320,3005
5049,3320,3005
5049,3318,3005
5044,3318,3005
5044,3318,2995
5044,3315,2995
5049,3315,2995
5049,3315,2999
5049,3310,2999
5057,3310,2999
5057,3310,2994
5057,3301,2994
5050,3301,2994
5050,3301,2987
5050,3301,2987
5054,3301,2987
5054,3301,2987
5054,3300,2987
5054,3300,2987
5054,3300,2992
5054,3300,2992
5048,3300,2992
5048,3300,3000
5048,3299,3000
5048,3299,3000
5048,3299,2998
5048,3305,2998
5048,3305,2998
5048,3305,3004
5048,3311,3004
5048,3311,3004
5048,3311,3003
5048,3313,3003
5046,3313,3003
5046,3313,3007
5046,3313,3007
5045,3313,3007
5045,3313,3005
5045,3311,3005
5041,3311,3005
5041,3311,3005
5041,3313,3005
5051,3313,3005
5051,3313,3001
5051,3313,3001
5047,3313,3001
5047,3313,3008
5047,3310,3008
5042,3310,3008
5042,3310,3004
5042,3312,3004
5049,3312,3004
5049,3312,3000
5049,3308,3000
5044,3308,3000
5044,3308,3006
5044,3310,3006
5047,3310,3006
5047,3310,3009
5047,3309,3009
5045,3309,3009
5045,3309,3003
5045,3311,3003
5042,3311,3003
5042,3311,3001
5042,3308,3001
5048,3308,3001
5048,3308,2999
5048,3309,2999
5039,3309,2999
5039,3309,3003
5039,3303,3003
5045,3303,3003
5045,3303,3010
5045,3305,3010
5045,3305,3010
5045,3305,3004
5045,3304,3004
5039,3304,3004
5039,3304,3006
5039,3309,3006
5041,3309,3006
5041,3309,3007
5041,3307,3007
5035,3307,3007
5035,3307,3002
5035,3309,3002
5040,3309,3002
5040,3309,3006
5040,3310,3006
5039,3310,3006
5039,3310,3003
5039,3307,3003
5038,3307,3003
5038,3307,3004
5038,3306,3004
5041,3306,3004
5041,3306,3003
5041,3303,3003
5041,3303,3003
5041,3303,3010
5041,3305,3010
5050,3305,3010
5050,3305,3000
5050,3302,3000
5053,3302,3000
5053,3302,3001
5053,3305,3001
5046,3305,3001
5046,3305,3005
5046,3298,3005
5051,3298,3005
5051,3298,2999
5051,3302,2999
5047,3302,2999
5047,3302,3003
5047,3299,3003
5045,3299,3003
5045,3299,3001
5045,3301,3001
5048,3301,3001
5048,3301,3002
5048,3303,3002
5048,3303,3002
5048,3303,3000
5048,3299,3000
5043,3299,3000
5043,3299,3001
5043,3302,3001
5046,3302,3001
5046,3302,2994
5046,3297,2994
5044,3297,2994
5044,3297,2998
5044,3296,2998
5048,3296,2998
5048,3296,2994
5048,3292,2994
5039,3292,2994
5039,3292,2996
5039,3293,2996
5045,3293,2996
5045,3293,2995
5045,3293,2995
5043,3293,2995
5043,3293,2994
5043,3296,2994
5043,3296,2994
5043,3296,2995
5043,3293,2995
5050,3293,2995
5050,3293,2993
5050,3295,2993
5041,3295,2993
5041,3295,2994
5041,3291,2994
5042,3291,2994
5042,3291,2996
5042,3294,2996
5037,3294,2996
5037,3294,2993
5037,3296,2993
5042,3296,2993
5042,3296,2994
5042,3294,2994
5039,3294,2994
5039,3294,2997
5039,3294,2997
5041,3294,2997
5041,3294,2993
5041,3293,2993
5037,3293,2993
5037,3293,2991
5037,3294,2991
5039,3294,2991
5039,3294,2999
5039,3294,2999
5037,3294,2999
5037,3294,2993
5037,3295,2993
5036,3295,2993
5036,3295,2992
5036,3293,2992
5040,3293,2992
5040,3293,2996
5040,3291,2996
5035,3291,2996
5035,3291,2993
5035,3294,2993
5037,3294,2993
5037,3294,2988
5037,3292,2988
5030,3292,2988
5030,3292,2999
5030,3290,2999
5032,3290,2999
5032,3290,2991
5032,3285,2991
5035,3285,2991
5035,3285,2990
5035,3279,2990
5027,3279,2990
5027,3279,2995
5027,3277,2995
5030,3277,2995
5030,3277,2988
5030,3278,2988
5022,3278,2988
5022,3278,2988
5022,3277,2988
5020,3277,2988
5020,3277,2984
5020,3272,2984
5017,3272,2984
5017,3272,2982
5017,3272,2982
5010,3272,2982
5010,3272,2979
5010,3268,2979
5010,3268,2979
5010,3268,2968
5010,3260,2968
5003,3260,2968
5003,3260,2965
5003,3257,2965
4999,3257,2965
4999,3257,2960
4999,3250,2960
5001,3250,2960
5001,3250,2956
5001,3253,2956
4999,3253,2956
4999,3253,2960
4999,3247,2960
5004,3247,2960
5004,3247,2959
5004,3252,2959
5004,3252,2959
5004,3252,2962
5004,3259,2962
5003,3259,2962
5003,3259,2964
5003,3260,2964
5006,3260,2964
5006,3260,2973
5006,3269,2973
5015,3269,2973
5015,3269,2966
5015,3271,2966
5011,3271,2966
5011,3271,2982
5011,3275,2982
5021,3275,2982
5021,3275,2982
5021,3281,2982
5018,3281,2982
5018,3281,2981
5018,3281,2981
5021,3281,2981
5021,3281,2980
5021,3283,2980
5023,3283,2980
5023,3283,2982
5023,3280,2982
5020,3280,2982
5020,3280,2984
5020,3281,2984
5031,3281,2984
5031,3281,2986
5031,3279,2986
5029,3279,2986
5029,3279,2984
5029,3279,2984
5036,3279,2984
5036,3279,2986
5036,3284,2986
5031,3284,2986
5031,3284,2983
5031,3282,2983
5025,3282,2983
5025,3282,2986
5025,3284,2986
5038,3284,2986
5038,3284,2983
5038,3279,2983
5030,3279,2983
5030,3279,2978
5030,3277,2978
5034,3277,2978
5034,3277,2988
5034,3278,2988
5035,3278,2988
5035,3278,2980
5035,3275,2980
5035,3275,2980
5035,3275,2974
5035,3272,2974
5038,3272,2974
5038,3272,2978
5038,3279,2978
5038,3279,2979
5038,3271,2979
5034,3271,2981
5034,3275,2981
5039,3275,2975
5039,3277,2975
5027,3277,2976
5027,3277,2976
5027,3277,2976
5027,3276,2976
5031,3276,2976
5031,3276,2975
5031,3275,2975
5024,3275,2973
5024,3276,2973
5029,3276,2978
5029,3272,2978
5030,3272,2978
5030,3272,2982
5030,3273,2982
5036,3273,2982
5036,3273,2973
5036,3273,2973
5037,3273,2973
5037,3273,2982
5037,3275,2982
5029,3275,2975
5029,3273,2975
5036,3273,2975
5036,3273,2974
5036,3272,2974
5032,3272,2974
5032,3272,2984
5032,3275,2984
5029,3275,2984
5029,3275,2979
5029,3274,2979
5029,3274,2979
5029,3274,2977
5029,3276,2977
5025,3276,2977
5025,3276,2979
5025,3276,2979
5023,3276,2980
5023,3271,2980
5022,3271,2983
5022,3273,2983
5024,3273,2975
5024,3274,2975
5022,3274,2975
5022,3274,2981
5022,3277,2981
5025,3277,2981
5025,3277,2977
5025,3278,2977
5019,3278,2977
5019,3278,2975
5019,3277,2975
5019,3277,2975
5019,3277,2975
5027,3277,2979
5027,3274,2979
5028,3274,2977
5028,3280,2977
5026,3280,2975
5026,3270,2975
5027,3270,2975
5027,3272,2975
5030,3272,2976
5030,3273,2976
5035,3273,2973
5035,3271,2973
5034,3271,2977
5034,3272,2977
5033,3272,2971
5033,3273,2971
5032,3273,2972
5032,3270,2972
5027,3270,2968
5027,3271,2968
5025,3271,2972
5025,3271,2972
5022,3271,2976
5022,3272,2976
5030,3272,2973
5030,3276,2973
5019,3276,2973
5019,3277,2973
5024,3277,2970
5024,3276,2970
5029,3276,2970
5029,3277,2970
5028,3277,2977
5028,3273,2977
5029,3273,2975
5029,3273,2975
5029,3273,2969
5029,3273,2969
5026,3273,2971
5026,3272,2971
5027,3272,2965
5027,3276,2965
5024,3276,2960
5024,3269,2960
5023,3269,2965
5023,3274,2965
5023,3274,2957
5023,3269,2957
5025,3269,2959
5025,3265,2959
5021,3265,2956
5021,3263,2956
5022,3263,2965
5022,3263,2965
5024,3263,2971
5024,3268,2971
5020,3268,2971
5020,3268,2971
5021,3268,2981
5021,3273,2981
5022,3273,2984
5022,3274,2984
5024,3274,2976
5024,3277,2976
5025,3277,2983
5025,3278,2983
5029,3278,2982
5029,3276,2982
5033,3276,2975
5033,3270,2975
5036,3270,2979
5036,3276,2979
5030,3276,2983
5030,3275,2983
5030,3275,2977
5030,3278,2977
5028,3278,2979
5028,3274,2979
5021,3274,2976
5021,3277,2976
5026,3277,2977
5026,3279,2977
5022,3279,2975
5022,3275,2975
5018,3275,2983
5018,3273,2983
5020,3273,2977
5020,3269,2977
5017,3269,2977
5017,3276,2977
5026,3276,2976
5026,3277,2976
5027,3277,2977
5027,3280,2977
5030,3280,2974
5032,3283,2979
5032,3285,2977
5031,3285,2977
5026,3279,2980
5026,3279,2981
5022,3279,2981
5022,3279,2981
5025,3279,2981
5025,3281,2981
5023,3281,2981
5023,3279,2983
5019,3279,2983
5019,3278,2979
5021,3278,2979
5021,3277,2980
5020,3277,2980
5020,3281,2979
5023,3281,2979
5023,3283,2978
5022,3283,2978
5022,3278,2982
5021,3278,2982
5021,3280,2981
5027,3280,2981
5027,3281,2984
5027,3281,2984
5027,3279,2983
5035,3279,2983
5035,3281,2982
5034,3281,2982
5034,3277,2981
5033,3277,2981
5033,3285,2976
5028,3285,2976
5028,3284,2977
5044,3284,2977
5044,3286,2977
5030,3286,2977
5030,3285,2983
5021,3285,2983
5029,3284,2984
5022,3287,2983
5020,3283,2981
5018,3283,2987
5025,3286,2981
5032,3283,2984
5032,3287,2987
5033,3282,2986
5033,3286,2983
5029,3286,2983
5028,3283,2985
5028,3286,2980
5028,3286,2980
5028,3282,2977
5024,3282,2977
5024,3280,2972
5020,3280,2972
5020,3284,2981
5014,3284,2981
5014,3289,2981
5014,3289,2981
5014,3293,2974
5009,3293,2974
5009,3286,2982
5008,3286,2982
5008,3290,2982
5003,3290,2982
5003,3293,2974
4998,3293,2974
4998,3293,2978
5001,3293,2978
5001,3293,2979
5004,3292,2979
5004,3292,2984
5009,3292,2984
5009,3292,2985
5013,3291,2985
5013,3291,2986
5019,3292,2986
5019,3292,2987
5026,3289,2987
5026,3289,2985
5029,3290,2985
5029,3290,2981
5025,3287,2981
5025,3287,2979
5023,3283,2979
5023,3283,2978
5036,3280,2978
5036,3280,2977
5028,3272,2977
5028,3272,2979
5027,3274,2979
5027,3274,2984
5022,3278,2984
5022,3278,2987
5026,3278,2987
5026,3278,2993
5027,3279,2993
5027,3279,2995
5023,3286,2995
5023,3286,2994
5027,3285,2994
5027,3285,2994
5019,3293,2994
5019,3293,2993
5016,3294,2993
5016,3294,2998
5014,3292,2998
5014,3292,2998
5012,3281,2998
5012,3281,2994
5009,3277,2994
5009,3277,2998
5004,3291,2998
5004,3291,2998
5002,3287,2998
5002,3287,3000
5002,3284,3000
5002,3284,2999
5002,3283,2999
5002,3283,2997
5005,3279,2997
5005,3279,2998
5007,3282,2998
5007,3282,3001
5012,3286,3001
5012,3286,2999
5018,3285,2999
5018,3285,3001
5025,3285,3001
5025,3285,3002
5027,3284,3002
5027,3284,3003
5034,3281,3003
5034,3281,2999
5042,3287,2999
5042,3287,2997
5037,3287,2997
5037,3287,3004
5034,3289,3004
5034,3289,3001
5042,3293,3001
5042,3293,2999
5039,3294,2999
5039,3294,3005
5036,3293,3005
5036,3293,3003
5038,3295,3003
5038,3295,2998
5030,3290,2998
5030,3290,3000
5029,3299,3000
5029,3299,2994
5032,3292,2994
5032,3292,3001
5034,3290,3001
5034,3290,2995
5039,3297,2995
5039,3297,2998
5045,3301,2998
5045,3301,3002
5040,3305,3002
5040,3305,3006
5044,3300,3006
5044,3300,3004
5043,3299,3004
5043,3299,3002
5045,3300,3002
5045,3300,3008
5037,3296,3008
5037,3296,3012
5035,3298,3012
5035,3298,3009
5037,3298,3009
5037,3298,3012
5034,3297,3012
5034,3297,3013
5034,3298,3013
5034,3298,3011
5029,3298,3011
5029,3299,3011
5029,3299,3014
5032,3297,3014
5032,3297,3012
5034,3297,3012
5034,3297,3016
5031,3298,3016
5031,3298,3011
5035,3297,3011
5035,3297,3012
5036,3297,3012
5036,3296,3012
5036,3296,3016
5040,3297,3016
5040,3297,3008
5041,3293,3008
5041,3293,3010
5045,3292,3010
5045,3292,3009
5045,3288,3009
5045,3288,3007
5047,3298,3007
5047,3298,3005
5043,3305,3005
5043,3305,3005
5042,3300,3005
5042,3300,3007
5040,3296,3007
5040,3296,3006
5037,3299,3006
5037,3299,3009
5042,3298,3009
5042,3298,3005
5035,3296,3005
5035,3296,3008
5038,3298,3008
5038,3298,3005
5038,3296,3005
5038,3296,3006
5039,3292,3006
5039,3292,3006
5038,3296,3006
5038,3296,3010
5035,3293,3010
5035,3293,3004
5041,3293,3004
5041,3293,3003
5042,3297,3003
5042,3297,2997
5039,3292,2997
5039,3292,2994
5044,3289,2994
5044,3289,2990
5043,3279,2990
5043,3279,2986
5038,3279,2986
5038,3279,2986
5038,3279,2996
5038,3278,2996
5038,3278,3000
5036,3276,3000
5036,3276,3002
5033,3284,3002
5033,3284,3004
5036,3284,3004
5036,3284,3004
5036,3284,3007
5039,3284,3007
5039,3300,3007
5039,3300,3009
5037,3300,3009
5037,3291,3009
5037,3291,3010
5041,3300,3010
5041,3300,3010
5041,3302,3010
5041,3302,3007
5043,3302,3007
5043,3302,3009
5042,3301,3009
5042,3301,3008
5048,3301,3008
5048,3297,3008
5048,3297,3010
5051,3297,3010
5051,3300,3010
5051,3300,3010
5052,3300,3010
5052,3292,3010
5052,3292,3007
5053,3292,3007
5053,3296,3007
5053,3296,3008
5053,3296,3008
5053,3294,3008
5053,3294,3005
5052,3294,3005
5052,3291,3005
5052,3291,3007
5050,3292,3007
5050,3292,3008
5050,3295,3008
5050,3295,3009
5045,3295,3009
5045,3293,3009
5045,3293,3005
5048,3294,3005
5048,3294,3011
5044,3294,3011
5044,3293,3011
5044,3293,3007
5044,3293,3007
5044,3291,3007
5044,3291,3006
5043,3291,3006
5043,3293,3006
5043,3293,3009
5043,3293,3009
5043,3298,3009
5043,3298,3008
5047,3298,3008
5047,3291,3008
5047,3291,3014
5049,3291,3014
5049,3292,3014
5049,3292,3016
5044,3300,3016
5044,3300,3009
5045,3300,3009
5045,3294,3009
5045,3294,3006
5047,3294,3006
5047,3293,3006
5047,3293,3005
5046,3293,3005
5046,3301,3005
5046,3301,3006
5043,3301,3006
5043,3292,3006
5043,3292,3003
5043,3292,3003
5043,3289,3003
5043,3289,3012
5040,3289,3012
5040,3292,3012
5040,3292,3011
5036,3292,3011
5036,3295,3011
5036,3295,3010
5037,3295,3010
5037,3291,3010
5037,3291,3010
5038,3291,3010
5038,3294,3010
5038,3294,3006
5039,3294,3006
5039,3296,3006
5039,3296,3007
5034,3296,3007
5034,3292,3007
5034,3292,3006
5042,3292,3006
5042,3292,3006
5042,3292,3006
5037,3292,3006
5037,3296,3006
5037,3296,2998
5032,3296,2998
5032,3296,2998
5032,3296,3001
5037,3296,3001
5037,3295,3001
5037,3295,2994
5023,3295,2994
5023,3296,2994
5023,3296,2999
5035,3296,2999
5035,3295,2999
5035,3295,2993
5029,3295,2993
5029,3295,2993
5029,3295,2991
5036,3295,2991
5036,3295,2991
5036,3295,2990
5026,3295,2990
5026,3291,2990
5026,3291,2992
5024,3291,2992
5024,3292,2992
5024,3292,2989
5021,3292,2989
5021,3291,2989
5021,3291,2990
5030,3291,2990
5030,3284,2990
5030,3284,2994
5026,3284,2994
5026,3283,2994
5026,3283,2993
5020,3283,2993
5020,3289,2993
5020,3289,2998
5027,3289,2998
5027,3293,2998
5027,3293,3001
5026,3293,3001
5026,3290,3001
5026,3290,3005
5027,3290,3005
5027,3291,3005
5027,3291,3004
5032,3291,3004
5032,3294,3004
5032,3294,3009
5036,3294,3009
5036,3289,3009
5036,3289,3005
5041,3289,3005
5041,3289,3005
5041,3289,3013
5046,3289,3013
5046,3294,3013
5046,3294,3000
5047,3294,3000
5047,3290,3000
5047,3290,3007
5043,3290,3007
5043,3290,3007
5043,3290,3004
5048,3290,3004
5048,3296,3004
5048,3296,3007
5045,3296,3007
5045,3287,3007
5045,3287,3013
5037,3287,3013
5037,3294,3013
5037,3294,3006
5040,3294,3006
5040,3289,3006
5040,3289,3006
5037,3289,3006
5037,3289,3006
5037,3289,3009
5035,3289,3009
5035,3293,3009
5035,3293,3003
5042,3293,3003
5042,3293,3003
5042,3293,3007
5037,3293,3007
5037,3288,3007
5037,3288,2993
5037,3288,2993
5037,3284,2993
5037,3284,2994
5033,3284,2994
5033,3275,2994
5033,3275,2995
5034,3275,2995
5034,3277,2995
5034,3277,2994
5033,3277,2994
5033,3281,2994
5033,3281,2999
5028,3281,2999
5028,3280,2999
5028,3280,2999
5039,3280,2999
5039,3285,2999
5039,3285,3004
5032,3285,3004
5032,3286,3004
5032,3286,3009
5040,3286,3009
5040,3293,3009
5040,3293,3008
5045,3293,3008
5045,3293,3008
5045,3293,3006
5042,3293,3006
5042,3289,3006
5042,3289,3011
5052,3289,3011
5052,3294,3011
5052,3294,3004
5046,3294,3004
5046,3289,3004
5046,3289,3013
5052,3289,3013
5052,3290,3013
5052,3290,3006
5047,3290,3006
5047,3291,3006
5047,3291,3013
5042,3291,3013
5042,3294,3013
5042,3294,3011
5047,3294,3011
5047,3290,3011
5047,3290,3011
5041,3290,3011
5041,3299,3011
5041,3299,3008
5042,3299,3008
5042,3295,3008
5042,3295,3009
5041,3295,3009
5041,3292,3009
5041,3292,3008
5044,3292,3008
5044,3295,3008
5044,3295,3013
5037,3295,3013
5037,3294,3013
5037,3294,3017
5042,3294,3017
5042,3290,3017
5042,3290,3013
5035,3290,3013
5035,3293,3013
5035,3293,3014
5033,3293,3014
5033,3286,3014
5033,3286,3008
5022,3286,3008
5022,3286,3008
5022,3286,3010
5027,3286,3010
5027,3290,3010
5027,3290,3011
5030,3290,3011
5030,3284,3011
5030,3284,3014
5021,3284,3014
5021,3289,3014
5021,3289,3011
5020,3289,3011
5020,3281,3011
5020,3281,3012
5013,3281,3012
5013,3281,3012
5013,3281,3009
5016,3281,3009
5016,3275,3009
5016,3275,3012
5010,3275,3012
5010,3281,3012
5010,3281,3014
5016,3281,3014
5016,3280,3014
5016,3280,3013
5015,3280,3013
5015,3277,3013
5015,3277,3011
5021,3277,3011
5021,3284,3011
5021,3284,3017
5021,3284,3017
5021,3283,3017
5021,3283,3012
5026,3283,3012
5026,3286,3012
5026,3286,3014
5026,3286,3014
5026,3287,3014
5026,3287,3014
5023,3287,3014
5023,3285,3014
5023,3285,3013
5034,3285,3013
5034,3288,3013
5034,3288,3018
5030,3288,3018
5030,3288,3018
5030,3288,3018
5039,3288,3018
5039,3291,3018
5039,3291,3012
5039,3291,3012
5039,3295,3012
5039,3295,3013
5049,3295,3013
5049,3299,3013
5049,3299,3013
5052,3299,3013
5052,3297,3013
5052,3297,3016
5053,3297,3016
5053,3295,3016
5053,3295,3013
5051,3295,3013
5051,3297,3013
5051,3297,3012
5052,3297,3012
5052,3294,3012
5052,3294,3017
5047,3294,3017
5047,3299,3017
5047,3299,3013
5050,3299,3013
5050,3295,3013
5050,3295,3010
5043,3295,3010
5043,3293,3010
5043,3293,3013
5044,3293,3013
5044,3297,3013
5044,3297,3019
5044,3297,3019
5044,3296,3019
5044,3296,3011
5041,3296,3011
5041,3294,3011
5041,3294,3013
5047,3294,3013
5047,3294,3013
5047,3294,3015
5043,3294,3015
5043,3288,3015
5043,3288,3014
5042,3288,3014
5042,3299,3014
5042,3299,3014
5041,3299,3014
5041,3293,3014
5041,3293,3015
5041,3293,3015
5041,3297,3015
5041,3297,3010
5045,3297,3010
5045,3294,3010
5045,3294,3014
5039,3294,3014
5039,3295,3014
5039,3295,3016
5047,3295,3016
5047,3298,3016
5047,3298,3013
5040,3298,3013
5040,3295,3013
5040,3295,3015
5039,3295,3015
5039,3300,3015
5039,3300,3015
5031,3300,3015
5031,3298,3015
5031,3298,3018
5032,3298,3018
5032,3299,3018
5032,3299,3018
5038,3299,3018
5038,3301,3018
5038,3301,3013
5040,3301,3013
5040,3295,3013
5040,3295,3012
5038,3295,3012
5038,3295,3012
5038,3295,3011
5039,3295,3011
5039,3296,3011
5039,3296,3000
5040,3296,3000
5040,3294,3000
5040,3294,3005
5035,3294,3005
5035,3289,3005
5035,3289,3006
5036,3289,3006
5036,3283,3006
5036,3283,2999
5039,3283,2999
5039,3285,2999
5039,3285,3000
5035,3285,3000
5035,3281,3000
5035,3281,3011
5035,3281,3011
5035,3283,3011
5035,3283,3013
5033,3283,3013
5033,3288,3013
5033,3288,3018
5049,3288,3018
5049,3291,3018
5049,3291,3019
5048,3291,3019
5048,3297,3019
5048,3297,3023
5053,3297,3023
5053,3298,3023
5053,3298,3018
5057,3298,3018
5057,3300,3018
5057,3300,3015
5052,3300,3015
5052,3293,3015
5052,3293,3017
5052,3293,3017
5052,3298,3017
5052,3298,3014
5048,3298,3014
5048,3298,3014
5048,3298,3013
5049,3298,3013
5049,3294,3013
5049,3294,3017
5049,3294,3017
5049,3297,3017
5049,3297,3021
5046,3297,3021
5046,3298,3021
5046,3298,3017
5046,3298,3017
5046,3302,3018
5048,3302,3018
5048,3306,3018
5043,3306,3018
5043,3299,3016
5042,3299,3016
5042,3298,3015
5045,3298,3015
5045,3297,3015
5045,3297,3020
5042,3297,3020
5042,3302,3020
5042,3302,3020
5042,3302,3020
5042,3300,3022
5039,3300,3022
5039,3302,3018
5043,3302,3018
5043,3297,3018
5042,3297,3018
5042,3295,3020
5043,3295,3020
5043,3297,3018
5045,3297,3018
5045,3300,3018
5045,3300,3018
5039,3300,3018
5039,3303,3018
5039,3303,3017
5036,3303,3017
5036,3300,3012
5038,3300,3012
5038,3297,3014
5033,3297,3014
5033,3305,3010
5032,3305,3010
5032,3300,3009
5034,3300,3009
5034,3299,3013
5034,3299,3013
5034,3302,3008
5032,3302,3008
5032,3300,3010
5025,3300,3010
5025,3304,3008
5021,3304,3008
5021,3301,3007
5015,3301,3007
5015,3304,3011
5015,3304,3011
5015,3305,3006
5018,3305,3006
5018,3308,3012
5025,3308,3012
5025,3308,3015
5028,3308,3015
5028,3306,3019
5031,3306,3019
5031,3307,3016
5034,3307,3016
5034,3304,3013
5031,3304,3013
5031,3300,3019
5034,3300,3019
5034,3303,3016
5041,3303,3016
5041,3303,3023
5038,3303,3023
5038,3302,3025
5047,3302,3025
5047,3308,3027
5051,3308,3027
5051,3309,3021
5043,3309,3021
5043,3307,3022
5043,3307,3022
5043,3307,3028
5044,3307,3028
5044,3310,3023
5040,3310,3023
5040,3307,3017
5046,3307,3017
5046,3303,3029
5049,3303,3029
5049,3303,3023
5049,3306,3023
5045,3306,3023
5045,3308,3028
5043,3308,3028
5043,3307,3029
5048,3307,3029
5048,3309,3024
5045,3309,3024
5045,3311,3018
5046,3311,3018
5046,3306,3025
5044,3306,3025
5044,3309,3024
5045,3309,3024
5045,3313,3024
5045,3313,3024
5045,3314,3025
5035,3314,3025
5035,3315,3028
5035,3315,3028
5035,3308,3022
5038,3308,3022
5038,3318,3026
5035,3318,3026
5035,3314,3024
5040,3314,3024
5040,3309,3022
5034,3309,3022
5034,3309,3020
5034,3309,3020
5034,3311,3018
5037,3311,3018
5037,3311,3013
5037,3303,3013
5032,3303,3013
5032,3303,3017
5032,3297,3017
5036,3297,3017
5036,3297,3009
5036,3301,3009
5039,3301,3009
5039,3298,3024
5044,3298,3024
5044,3298,3025
5044,3300,3025
5054,3300,3025
5054,3300,3029
5054,3302,3029
5055,3302,3029
5055,3302,3032
5055,3308,3032
5050,3308,3032
5050,3308,3032
5051,3308,3032
5051,3312,3032
5055,3312,3032
5055,3310,3032
5045,3310,3032
5045,3310,3036
5045,3310,3036
5044,3310,3036
5044,3310,3033
5044,3321,3033
5045,3321,3033
5045,3321,3033
5045,3317,3033
5042,3317,3033
5042,3317,3032
5042,3318,3032
5042,3318,3032
5042,3318,3033
5042,3322,3033
5043,3322,3033
5043,3322,3029
5043,3317,3029
5043,3317,3029
5043,3317,3031
5043,3313,3031
5040,3313,3031
5040,3313,3029
5040,3321,3029
5040,3321,3029
5040,3321,3030
5040,3316,3030
5043,3316,3030
5043,3316,3029
5043,3321,3029
5044,3321,3029
5044,3321,3031
5044,3317,3031
5044,3317,3031
5044,3317,3030
5044,3321,3030
5040,3321,3030
5040,3321,3033
5040,3316,3033
5041,3316,3033
5041,3316,3034
5041,3322,3034
5045,3322,3034
5045,3322,3035
5045,3323,3035
5044,3323,3035
5044,3323,3030
5044,3321,3030
5045,3321,3030
5045,3321,3033
5045,3320,3033
5033,3320,3033
5033,3320,3036
5033,3318,3036
5036,3318,3036
5036,3318,3036
5036,3323,3036
5039,3323,3036
5039,3323,3033
5039,3321,3033
5032,3321,3033
5032,3321,3035
5032,3323,3035
5029,3323,3035
5029,3323,3035
5029,3322,3035
5022,3322,3035
5022,3322,3039
5022,3323,3039
5021,3323,3039
5021,3323,3035
5021,3312,3035
5015,3312,3035
5015,3312,3036
5015,3325,3036
5018,3325,3036
5018,3325,3033
5018,3315,3033
5018,3315,3033
5018,3315,3035
5018,3321,3035
5013,3321,3035
5013,3321,3035
5013,3315,3035
5019,3315,3035
5019,3315,3038
5019,3313,3038
5022,3313,3038
5022,3313,3037
5022,3313,3037
5025,3313,3037
5025,3313,3037
5025,3305,3037
5017,3305,3037
5017,3305,3033
5017,3302,3033
5018,3302,3033
5018,3302,3035
5018,3303,3035
5017,3303,3035
5017,3303,3035
5017,3304,3035
5027,3304,3035
5027,3304,3032
5027,3308,3032
5025,3308,3032
5025,3308,3031
5025,3308,3031
5029,3308,3031
5029,3308,3033
5029,3310,3033
5028,3310,3033
5028,3310,3034
5028,3311,3034
5031,3311,3034
5031,3311,3035
5031,3311,3035
5029,3311,3035
5029,3311,3032
5029,3311,3032
5038,3311,3032
5038,3311,3040
5038,3319,3040
5037,3319,3040
5037,3319,3035
5037,3315,3035
5039,3315,3035
5039,3315,3033
5039,3325,3033
5037,3325,3033
5037,3325,3036
5037,3329,3036
5046,3329,3036
5046,3329,3031
5046,3328,3031
5039,3328,3031
5039,3328,3032
5039,3325,3032
5039,3325,3032
5039,3325,3036
5039,3329,3036
5042,3329,3036
5042,3329,3033
5042,3330,3033
5039,3330,3033
5039,3330,3034
5039,3328,3034
5042,3328,3034
5042,3328,3038
5042,3333,3038
5038,3333,3038
5038,3333,3034
5038,3325,3034
5039,3325,3034
5039,3325,3038
5039,3327,3038
5033,3327,3038
5033,3327,3039
5033,3330,3039
5035,3330,3039
5035,3330,3033
5035,3325,3033
5034,3325,3033
5034,3325,3041
5034,3326,3041
5036,3326,3041
5036,3326,3038
5036,3332,3038
5030,3332,3038
5030,3332,3035
5030,3330,3035
5035,3330,3035
5035,3330,3038
5035,3328,3038
5031,3328,3038
5031,3328,3034
5031,3331,3034
5030,3331,3034
5030,3331,3028
5030,3328,3028
5038,3328,3028
5038,3328,3032
5038,3322,3032
5034,3322,3032
5034,3322,3023
5034,3322,3023
5041,3322,3023
5041,3322,3022
5041,3319,3022
5042,3319,3022
5042,3319,3018
5042,3311,3018
5044,3311,3018
5044,3311,3022
5044,3316,3022
5049,3316,3022
5049,3316,3031
5049,3318,3031
5045,3318,3031
5045,3318,3028
5045,3319,3028
5043,3319,3028
5043,3319,3039
5043,3329,3039
5047,3329,3039
5047,3329,3039
5047,3328,3039
5046,3328,3039
5046,3328,3035
5046,3333,3035
5040,3333,3035
5040,3333,3031
5040,3330,3031
5045,3330,3031
5045,3330,3041
5045,3335,3041
5038,3335,3041
5038,3335,3038
5038,3331,3038
5044,3331,3038
5044,3331,3035
5044,3328,3035
5041,3328,3035
5041,3328,3041
5041,3331,3041
5041,3331,3041
5041,3331,3034
5041,3330,3034
5046,3330,3034
5046,3330,3036
5046,3332,3036
5043,3332,3036
5043,3332,3036
5043,3334,3036
5047,3334,3036
5047,3334,3034
5047,3333,3034
5043,3333,3034
5043,3333,3033
5043,3331,3033
5040,3331,3033
5040,3331,3035
5040,3329,3035
5043,3329,3035
5043,3329,3031
5043,3333,3031
5037,3333,3031
5037,3333,3034
5037,3332,3034
5035,3332,3034
5035,3332,3025
5035,3334,3025
5037,3334,3025
5037,3334,3024
5037,3335,3024
5026,3335,3024
5026,3335,3030
5026,3335,3030
5028,3335,3030
5028,3335,3023
5028,3335,3023
5028,3335,3023
5028,3335,3020
5028,3335,3020
5025,3335,3020
5025,3335,3027
5025,3337,3027
5022,3337,3027
5022,3337,3023
5022,3332,3023
5013,3332,3023
5013,3332,3024
5013,3337,3024
5008,3337,3024
5008,3337,3021
5008,3336,3021
5014,3336,3021
5014,3336,3021
5014,3339,3021
5003,3339,3021
5003,3339,3021
5003,3331,3021
5012,3331,3021
5012,3331,3030
5012,3341,3030
5017,3341,3030
5017,3341,3028
5017,3342,3028
5021,3342,3028
5021,3342,3035
5021,3335,3035
5029,3335,3035
5029,3335,3034
5029,3333,3034
5031,3333,3034
5031,3333,3035
5031,3337,3035
5046,3337,3035
5046,3337,3040
5046,3335,3040
5046,3335,3040
5046,3335,3035
5046,3334,3035
5049,3334,3035
5049,3334,3033
5049,3332,3033
5046,3332,3033
5046,3332,3037
5046,3338,3037
5046,3338,3037
5046,3338,3037
5046,3334,3037
5046,3334,3037
5046,3334,3033
5046,3339,3033
5045,3339,3034
5045,3340,3034
5044,3340,3034
5044,3340,3033
5044,3337,3033
5041,3337,3033
5041,3337,3039
5041,3340,3039
5043,3340,3039
5043,3340,3038
5043,3339,3038
5043,3339,3038
5043,3339,3036
5043,3341,3036
5046,3341,3036
5046,3335,3036
5044,3335,3036
5044,3335,3035
5044,3333,3035
5041,3333,3035
5041,3333,3033
5041,3337,3033
5042,3337,3033
5042,3337,3035
5042,3343,3035
5040,3343,3035
5040,3343,3036
5040,3343,3036
5044,3343,3036
5044,3341,3036
5040,3341,3036
5040,3341,3037
5040,3340,3037
5038,3340,3037
5038,3340,3038
5038,3341,3038
5039,3341,3038
5039,3341,3040
5039,3339,3040
5041,3339,3040
5041,3339,3037
5041,3339,3037
5035,3339,3037
5035,3339,3036
5035,3342,3036
5033,3342,3036
5033,3342,3039
5033,3342,3039
5038,3342,3039
5038,3342,3038
5038,3345,3038
5033,3345,3038
5033,3345,3038
5033,3343,3038
5037,3343,3038
5037,3343,3039
5037,3346,3039
5039,3346,3037
5039,3342,3037
5035,3342,3038
5035,3344,3038
5040,3344,3038
5040,3337,3038
5032,3337,3038
5032,3339,3038
5036,3339,3038
5036,3345,3038
5038,3345,3037
5038,3341,3037
5045,3341,3028
5045,3336,3028
5046,3336,3029
5046,3336,3029
5048,3336,3030
5048,3333,3030
5051,3333,3019
5051,3328,3019
5046,3328,3020
5046,3326,3020
5046,3326,3029
5046,3326,3029
5044,3326,3033
5044,3334,3033
5044,3334,3038
5044,3332,3038
5047,3332,3033
5047,3337,3033
5040,3337,3037
5040,3342,3037
5043,3342,3038
5043,3345,3038
5041,3345,3038
5041,3347,3038
5044,3347,3038
5044,3347,3036
5044,3344,3036
5043,3344,3038
5043,3343,3038
5042,3343,3038
5042,3345,3038
5047,3345,3039
5047,3348,3039
5046,3348,3039
5046,3340,3039
5046,3340,3037
5046,3347,3037
5046,3347,3040
5046,3340,3040
5044,3340,3040
5044,3340,3042
5044,3347,3042
5044,3347,3042
5044,3347,3044
5044,3339,3044
5038,3339,3043
5038,3348,3043
5038,3348,3044
5038,3350,3044
5041,3350,3037
5041,3346,3037
5037,3346,3038
5037,3353,3038
5042,3353,3048
5042,3350,3048
5039,3350,3040
5039,3353,3040
5038,3353,3047
5038,3346,3047
5039,3346,3046
5039,3345,3046
5039,3345,3047
5039,3346,3047
5041,3346,3044
5041,3347,3044
5045,3347,3045
5045,3343,3045
5044,3343,3042
5044,3342,3042
5050,3342,3042
5050,3345,3042
5053,3345,3043
5053,3346,3043
5056,3346,3045
5056,3343,3045
5048,3343,3041
5048,3345,3041
5053,3345,3040
5053,3344,3040
5052,3344,3041
5052,3347,3041
5053,3347,3041
5053,3343,3041
5045,3343,3039
5045,3345,3039
5041,3345,3038
5041,3349,3038
5034,3349,3039
5034,3339,3039
5033,3339,3042
5033,3342,3042
5025,3342,3040
5025,3348,3040
5027,3348,3044
5027,3342,3044
5026,3342,3042
5026,3338,3042
5024,3338,3044
5024,3333,3044
5029,3333,3039
5029,3333,3039
5024,3333,3041
5024,3328,3041
5022,3328,3040
5022,3322,3040
5019,3322,3039
5019,3326,3039
5022,3326,3042
5022,3329,3042
5024,3329,3037
5024,3330,3037
5027,3330,3034
5027,3331,3034
5030,3331,3039
5030,3335,3039
5031,3335,3039
5031,3333,3039
5035,3333,3041
5035,3335,3041
5036,3335,3035
5036,3339,3035
5036,3339,3041
5036,3338,3041
5032,3338,3046
5032,3343,3046
5036,3343,3043
5036,3343,3043
5039,3343,3046
5039,3341,3046
5038,3341,3052
5038,3342,3052
5046,3342,3053
5046,3341,3053
5049,3341,3048
5049,3351,3048
5060,3351,3049
5060,3352,3049
5061,3352,3043
5061,3344,3043
5064,3344,3041
5064,3344,3041
5052,3344,3039
5052,3343,3039
5054,3343,3042
5054,3341,3042
5051,3341,3034
5051,3339,3034
5053,3339,3031
5053,3338,3031
5050,3338,3030
5050,3335,3030
5044,3335,3026
5044,3329,3026
5050,3329,3024
5050,3324,3024
5050,3324,3026
5050,3329,3026
5051,3329,3024
5051,3330,3024
5053,3330,3037
5053,3329,3037
5057,3329,3036
5057,3336,3036
5056,3336,3038
5056,3342,3038
5055,3342,3044
5055,3343,3044
5050,3343,3040
5050,3337,3040
5050,3337,3043
5048,3337,3043
5048,3342,3043
5049,3342,3039
5049,3345,3039
5050,3345,3039
5050,3348,3039
5047,3348,3042
5047,3346,3042
5046,3346,3043
5046,3347,3041
5042,3347,3041
5042,3346,3038
5040,3346,3038
5040,3342,3034
5042,3342,3034
5042,3342,3035
5035,3342,3035
5035,3345,3033
5038,3345,3033
5038,3343,3027
5037,3343,3027
5037,3343,3027
5037,3343,3032
5037,3344,3032
5036,3344,3030
5036,3344,3028
5033,3344,3028
5033,3342,3028
5041,3342,3029
5041,3344,3029
5036,3344,3025
5036,3340,3027
5038,3340,3027
5038,3343,3027
5041,3343,3025
5041,3337,3025
5046,3337,3031
5046,3337,3032
5040,3337,3032
5040,3344,3035
5040,3344,3035
5040,3345,3041
5041,3345,3041
5041,3347,3039
5044,3347,3039
5044,3340,3034
5047,3340,3034
5047,3347,3041
5048,3347,3041
5048,3346,3040
5049,3346,3040
5049,3347,3038
5059,3347,3038
5059,3341,3042
5058,3341,3042
5058,3342,3046
5052,3342,3046
5052,3341,3037
5056,3341,3037
5056,3341,3046
5054,3341,3046
5054,3340,3043
5052,3340,3043
5052,3342,3040
5053,3342,3040
5053,3337,3045
5053,3337,3045
5053,3339,3043
5052,3339,3043
5052,3340,3042
5052,3340,3042
5052,3341,3042
5050,3341,3042
5050,3340,3041
5045,3340,3041
5045,3336,3041
5048,3336,3041
5048,3342,3043
5049,3342,3043
5049,3347,3039
5051,3347,3039
5051,3338,3041
5054,3338,3041
5054,3336,3041
5053,3336,3041
5053,3340,3037
5052,3340,3037
5052,3343,3039
5051,3343,3039
5051,3343,3046
5053,3343,3046
5053,3343,3044
5051,3346,3044
5051,3342,3043
5055,3342,3043
5055,3342,3044
5060,3343,3044
5060,3343,3046
5064,3337,3046
5064,3337,3043
5065,3335,3043
5065,3335,3043
5065,3337,3043
5065,3337,3041
5060,3334,3041
5060,3334,3039
5057,3333,3039
5057,3333,3038
5057,3336,3038
5057,3336,3035
5056,3333,3035
5056,3333,3036
5056,3339,3036
5056,3336,3038
5052,3336,3038
5052,3335,3034
5051,3335,3034
5051,3332,3033
5054,3332,3033
5054,3326,3028
5054,3326,3028
5054,3322,3025
5056,3322,3025
5056,3322,3024
5051,3322,3024
5051,3337,3020
5057,3337,3020
5057,3315,3024
5055,3315,3024
5055,3315,3033
5053,3315,3033
5053,3321,3036
5053,3321,3036
5053,3321,3035
5048,3335,3035
5048,3335,3040
5046,3343,3040
5046,3343,3039
5049,3342,3039
5049,3342,3038
5052,3337,3038
5052,3337,3041
5053,3338,3041
5053,3338,3042
5055,3335,3042
5055,3335,3040
5060,3337,3040
5060,3337,3036
5057,3337,3036
5057,3337,3037
5055,3334,3037
5055,3334,3040
5052,3334,3040
5052,3334,3044
5053,3335,3044
5053,3335,3045
5054,3332,3045
5054,3332,3042
5059,3332,3042
5059,3332,3046
5063,3329,3046
5063,3329,3045
5066,3332,3045
5066,3332,3040
5068,3331,3040
5068,3331,3047
5064,3327,3047
5064,3327,3051
5064,3336,3051
5064,3336,3042
5059,3343,3042
5059,3343,3046
5060,3339,3046
5060,3339,3043
5057,3328,3043
5057,3328,3043
5057,3329,3043
5057,3329,3041
5055,3339,3041
5055,3339,3044
5055,3337,3044
5058,3337,3044
5058,3337,3045
5055,3334,3045
5055,3334,3038
5058,3331,3038
5058,3331,3037
5056,3330,3037
5056,3330,3042
5056,3328,3042
5055,3328,3042
5055,3328,3037
5053,3329,3037
5053,3329,3036
5050,3327,3036
5050,3327,3040
5053,3328,3040
5053,3328,3033
5049,3327,3033
5049,3327,3034
5050,3327,3034
5050,3327,3036
5051,3329,3036
5051,3329,3035
5055,3326,3035
5055,3326,3037
5055,3326,3037
5055,3326,3037
5059,3327,3037
5059,3327,3038
5057,3328,3038
5057,3328,3035
5048,3323,3035
5048,3323,3033
5042,3322,3033
5042,3322,3036
5041,3324,3036
5041,3324,3036
5038,3322,3036
5038,3322,3036
5039,3319,3036
5039,3319,3037
5038,3317,3037
5038,3317,3032
5042,3314,3032
5042,3314,3035
5041,3311,3035
5041,3311,3038
5038,3307,3038
5038,3307,3031
5035,3306,3031
5035,3306,3033
5037,3305,3033
5037,3305,3033
5041,3308,3033
5041,3308,3034
5046,3307,3034
5046,3307,3028
5045,3302,3028
5045,3302,3033
5050,3310,3033
5050,3310,3032
5048,3309,3032
5048,3309,3030
5044,3310,3030
5044,3310,3031
5049,3315,3031
5049,3315,3033
5053,3318,3033
5053,3318,3031
5055,3319,3031
5055,3319,3028
5057,3319,3028
5057,3319,3028
5056,3320,3028
5056,3320,3030
5055,3323,3030
5055,3323,3028
5054,3321,3028
5054,3321,3020
5053,3317,3020
5053,3317,3017
5049,3313,3017
5049,3313,3017
5043,3305,3017
5043,3305,3008
5052,3308,3008
5052,3308,3006
5047,3309,3006
5047,3309,3010
5052,3309,3010
5052,3309,3011
5057,3306,3011
5057,3306,3017
5049,3309,3017
5049,3309,3026
5055,3310,3026
5055,3310,3025
5048,3318,3025
5048,3318,3036
5050,3321,3036
5050,3321,3029
5051,3320,3029
5051,3320,3027
5044,3321,3027
5044,3321,3026
5052,3322,3026
5052,3322,3016
5050,3320,3016
5050,3320,3019
5050,3325,3019
5050,3325,3022
5053,3318,3022
5053,3318,3009
5051,3318,3009
5051,3312,3009
5051,3312,3013
5049,3316,3013
5049,3316,3012
5042,3314,3012
5042,3314,3011
5035,3317,3011
5035,3317,3010
5037,3314,3010
5037,3314,3010
5032,3310,3010
5032,3310,3013
5032,3311,3013
5032,3311,3016
5033,3306,3016
5033,3306,3013
5038,3317,3013
5038,3317,3020
5037,3312,3020
5037,3312,3021
5043,3321,3021
5043,3321,3018
5040,3322,3018
5040,3322,3019
5044,3321,3019
5044,3321,3020
5049,3316,3020
5049,3316,3019
5045,3314,3019
5045,3314,3020
5050,3311,3020
5050,3311,3019
5046,3306,3019
5046,3306,3019
5047,3312,3019
5047,3312,3023
5046,3314,3023
5046,3314,3022
5048,3318,3022
5048,3318,3018
5048,3315,3018
5048,3315,3021
5049,3315,3021
5049,3317,3021
5049,3317,3018
5043,3317,3018
5043,3311,3018
5043,3311,3018
5046,3311,3018
5046,3315,3018
5046,3315,3023
5044,3310,3023
5044,3310,3021
5044,3310,3021
5044,3310,3019
5040,3312,3019
5040,3312,3019
5042,3315,3019
5042,3315,3025
5044,3315,3025
5044,3315,3025
5044,3315,3023
5045,3315,3023
5045,3321,3023
5045,3321,3020
5048,3321,3020
5048,3318,3020
5048,3318,3025
5058,3318,3025
5058,3318,3018
5059,3317,3018
5059,3317,3020
5059,3312,3020
5059,3312,3019
5058,3314,3019
5058,3314,3017
5058,3314,3017
5058,3311,3017
5058,3311,3017
5048,3311,3017
5048,3313,3017
5048,3313,3020
5051,3313,3020
5051,3309,3020
5051,3309,3016
5046,3309,3016
5046,3310,3016
5046,3310,3015
5051,3310,3015
5051,3312,3015
5051,3312,3020
5046,3312,3020
5046,3309,3020
5046,3309,3022
5048,3309,3022
5048,3311,3022
5048,3311,3017
5045,3311,3017
5045,3313,3017
5045,3313,3019
5051,3312,3019
5051,3312,3015
5051,3308,3015
5051,3308,3018
5046,3308,3018
5046,3312,3018
5046,3312,3017
5054,3312,3017
5054,3310,3017
5054,3310,3016
5048,3310,3016
5048,3308,3016
5048,3308,3016
5049,3308,3016
5049,3308,3016
5049,3308,3016
5048,3308,3016
5048,3308,3016
5048,3308,3013
5048,3308,3013
5048,3313,3013
5048,3313,3017
5043,3313,3017
5043,3315,3017
5043,3315,3014
5049,3315,3014
5049,3313,3014
5049,3313,3013
5045,3313,3013
5045,3310,3013
5045,3310,3007
5048,3310,3007
5048,3309,3007
5048,3309,3006
5047,3309,3006
5047,3307,3006
5047,3307,2998
5043,3307,2998
5043,3305,2998
5043,3305,3000
5045,3305,3000
5045,3295,3000
5045,3295,2999
5044,3295,2999
5044,3294,2999
5044,3294,3002
5041,3294,3002
5041,3294,3002
5041,3294,3012
5043,3294,3012
5043,3297,3012
5043,3297,3012
5047,3297,3012
5047,3300,3012
5047,3300,3013
5047,3300,3013
5047,3303,3013
5047,3303,3012
5058,3303,3012
5058,3309,3012
5058,3309,3012
5055,3309,3012
5055,3308,3012
5055,3308,3013
5053,3308,3013
5053,3304,3013
5053,3304,3015
5054,3304,3015
5054,3307,3015
5054,3307,3013
5048,3307,3013
5048,3307,3013
5048,3307,3013
5049,3307,3013
5049,3311,3013
5049,3311,3008
5049,3311,3008
5049,3308,3008
5049,3308,3011
5046,3308,3011
5046,3306,3011
5046,3306,3015
5047,3306,3015
5047,3314,3015
5047,3314,3008
5048,3314,3008
5048,3304,3008
5048,3304,3008
5040,3304,3008
5040,3305,3008
5040,3305,3004
5045,3305,3004
5045,3305,3004
5045,3305,3010
5043,3305,3010
5043,3310,3010
5043,3310,3010
5047,3310,3010
5047,3310,3010
5047,3310,3006
5051,3310,3006
5051,3303,3006
5051,3303,3008
5046,3303,3008
5046,3307,3008
5046,3307,3005
5048,3307,3005
5048,3300,3005
5048,3300,3009
5045,3300,3009
5045,3310,3009
5045,3310,3011
5046,3310,3011
5046,3301,3011
5046,3301,3010
5039,3301,3010
5039,3304,3010
5039,3304,3009
5044,3304,3009
5044,3302,3009
5044,3302,3004
5040,3302,3004
5040,3305,3004
5040,3305,3007
5047,3305,3007
5047,3301,3007
5047,3301,3005
5040,3301,3005
5040,3308,3005
5040,3308,3008
5042,3308,3008
5042,3306,3008
5042,3306,3016
5043,3306,3016
5043,3306,3016
5043,3306,3009
5040,3306,3009
5040,3305,3009
5040,3305,3011
5041,3305,3011
5041,3304,3011
5041,3304,3008
5040,3304,3008
5040,3304,3008
5040,3304,3012
5040,3304,3012
5040,3311,3012
5040,3311,3009
5031,3311,3009
5031,3303,3009
5031,3303,3014
5043,3303,3014
5043,3310,3014
5043,3310,3008
5043,3310,3008
5043,3306,3008
5043,3306,3004
5042,3306,3004
5042,3305,3004
5042,3305,3012
5051,3305,3012
5051,3305,3012
5051,3305,3008
5051,3305,3008
5051,3298,3008
5051,3298,3003
5059,3298,3003
5059,3305,3003
5059,3305,3003
5049,3305,3003
5049,3297,3003
5049,3297,3005
5053,3297,3005
5053,3299,3005
5053,3299,3001
5050,3299,3001
5050,3298,3001
5050,3298,3000
5050,3298,3000
5050,3303,3000
5050,3303,2998
5051,3303,2998
5051,3298,2998
5051,3298,2997
5052,3298,2997
5052,3297,2997
5052,3297,3007
5045,3297,3007
5045,3295,3007
5045,3295,3003
5041,3295,3003
5041,3297,3003
5041,3297,2996
5042,3297,2996
5042,3296,2996
5042,3296,3001
5034,3296,3001
5034,3300,3001
5034,3300,2999
5036,3300,2999
5036,3294,2999
5036,3294,3005
5027,3294,3005
5027,3296,3005
5027,3296,2996
5027,3296,2996
5027,3291,2996
5027,3291,3001
5026,3291,3001
5026,3291,3001
5026,3291,2998
5024,3291,2998
5024,3283,2998
5024,3283,2999
5026,3283,2999
5026,3283,2999
5026,3283,2997
5017,3283,2997
5017,3285,2997
5017,3285,2995
5017,3285,2995
5017,3274,2995
5017,3274,3002
5015,3274,3002
5015,3288,3002
5015,3288,3001
5017,3288,3001
5017,3281,3001
5017,3281,2995
5023,3281,2995
5023,3283,2995
5023,3283,3000
5019,3283,3000
5019,3283,3000
5019,3283,3001
5028,3283,3001
5028,3281,3001
5028,3281,2997
5034,3281,2997
5034,3285,2997
5034,3285,2991
5029,3285,2991
5029,3279,2991
5029,3279,2985
5039,3279,2985
5039,3285,2985
5039,3285,2983
5035,3285,2983
5035,3282,2983
5035,3282,2985
5029,3282,2985
5029,3280,2985
5029,3280,2977
5036,3280,2977
5036,3280,2977
5036,3280,2974
5037,3280,2974
5037,3279,2974
5037,3279,2984
5042,3279,2984
5042,3284,2984
5042,3284,2981
5039,3284,2981
5039,3285,2981
5039,3285,2983
5046,3285,2983
5046,3288,2983
5046,3288,2981
5039,3288,2981
5039,3292,2981
5039,3292,2985
5037,3292,2985
5037,3291,2985
5037,3291,2978
5028,3291,2978
5028,3288,2978
5028,3288,2977
5028,3288,2977
5028,3292,2977
5028,3292,2973
5020,3292,2973
5020,3287,2973
5020,3287,2974
5019,3287,2974
5019,3293,2974
5019,3293,2975
5019,3293,2975
5019,3289,2975
5019,3289,2977
5022,3289,2977
5022,3296,2977
5022,3296,2984
5022,3296,2984
5022,3292,2984
5022,3292,2984
5024,3292,2984
5024,3292,2987
5030,3292,2987
5030,3291,2994
5033,3291,2994
5033,3286,2992
5037,3286,2992
5037,3289,2988
5038,3289,2988
5038,3290,2993
5035,3290,2993
5035,3295,2995
5040,3295,2995
5040,3292,2989
5038,3292,2989
5038,3294,2990
5037,3294,2990
5037,3290,2993
5038,3290,2993
5038,3290,2993
5039,3290,2993
5039,3284,2989
5034,3284,2989
5034,3290,2989
5039,3290,2989
5039,3294,2994
5033,3294,2994
5033,3293,2991
5036,3293,2991
5036,3293,2988
5035,3293,2988
5035,3298,2991
5034,3298,2991
5034,3287,2991
5034,3287,2987
5032,3287,2987
5032,3289,2991
5030,3289,2991
5030,3292,2992
5033,3292,2992
5033,3288,2992
5033,3288,2991
5034,3288,2991
5034,3290,2987
5042,3290,2987
5042,3290,2991
5037,3290,2991
5037,3286,2992
5045,3286,2992
5045,3289,2983
5047,3289,2983
5047,3282,2989
5039,3282,2989
5039,3280,2988
5041,3280,2988
5041,3290,2988
5047,3290,2988
5047,3287,2988
5042,3287,2988
5042,3284,2987
5040,3284,2987
5040,3285,2989
5035,3285,2989
5035,3285,2986
5039,3285,2986
5039,3289,2983
5039,3289,2983
5039,3283,2987
5038,3283,2987
5038,3282,2985
5040,3282,2985
5040,3281,2990
5038,3281,2990
5038,3282,2986
5039,3282,2986
5039,3282,2985
5039,3282,2985
5039,3278,2984
5041,3278,2984
5041,3285,2985
5042,3285,2985
5042,3282,2985
5037,3282,2985
5037,3288,2985
5040,3288,2985
5040,3287,2988
5040,3287,2988
5040,3289,2990
5042,3289,2990
5042,3285,2987
5035,3285,2987
5035,3285,2988
5035,3284,2988
5034,3284,2988
5034,3286,2989
5040,3286,2989
5040,3282,2987
5039,3282,2987
5039,3282,2987
5039,3277,2987
5040,3277,2987
5040,3286,2985
5037,3286,2985
5037,3284,2991
5033,3284,2991
5033,3288,2992
5036,3288,2992
5036,3282,2986
5034,3282,2986
5034,3282,2988
5038,3282,2988
5038,3282,2982
5038,3279,2982
5041,3279,2982
5041,3279,2974
5041,3278,2974
5045,3278,2974
5045,3278,2973
5045,3271,2973
5044,3271,2973
5044,3265,2969
5049,3265,2969
5049,3261,2965
5045,3261,2965
5045,3261,2964
5045,3265,2964
5050,3265,2964
5050,3265,2973
5050,3269,2973
5042,3269,2973
5042,3269,2974
5042,3265,2974
5041,3265,2974
5041,3265,2981
5041,3268,2981
5043,3268,2981
5043,3268,2982
5043,3278,2982
5041,3278,2982
5041,3277,2987
5040,3277,2987
5040,3277,2985
5038,3277,2985
5038,3277,2986
5038,3277,2986
5038,3277,2986
5038,3277,2986
5038,3277,2986
5038,3277,2984
5038,3278,2984
5037,3278,2984
5037,3278,2985
5037,3277,2985
5039,3277,2985
5039,3277,2986
5039,3272,2986
5039,3272,2986
5039,3272,2988
5039,3277,2988
5044,3277,2988
5044,3277,2986
5044,3279,2986
5035,3279,2986
5035,3279,2983
5035,3280,2983
5035,3280,2983
5035,3280,2985
5035,3277,2985
5032,3277,2985
5032,3277,2987
5032,3275,2987
5032,3275,2987
5032,3275,2986
5032,3275,2986
5033,3275,2986
5033,3275,2988
5033,3276,2988
5041,3276,2988
5041,3276,2983
5041,3273,2983
5035,3273,2983
5035,3273,2987
5035,3274,2987
5035,3274,2987
5035,3274,2985
5035,3272,2985
5032,3272,2985
5032,3272,2987
5032,3278,2987
5033,3278,2987
5033,3278,2991
5033,3278,2991
5029,3278,2991
5029,3278,2986
5029,3277,2986
5034,3277,2986
5034,3277,2987
5034,3279,2987
5038,3279,2987
5038,3279,2984
5038,3273,2984
5031,3273,2984
5031,3273,2984
5031,3278,2984
5037,3278,2984
5037,3278,2987
5037,3274,2987
5035,3274,2987
5035,3274,2988
5035,3277,2988
5043,3277,2988
5043,3277,2991
5043,3272,2991
5048,3272,2991
5048,3272,2981
5048,3273,2981
5049,3273,2981
5049,3273,2987
5049,3269,2987
5053,3269,2987
5053,3269,2994
5053,3271,2994
5047,3271,2994
5047,3271,2985
5047,3273,2985
5046,3273,2985
5046,3273,2993
5046,3275,2993
5046,3275,2993
5046,3275,2991
5046,3273,2991
5042,3273,2991
5042,3273,2987
5042,3267,2987
5042,3267,2987
5042,3267,2988
5042,3273,2988
5041,3273,2988
5041,3273,2986
5041,3270,2986
5038,3270,2986
5038,3270,2986
5038,3270,2986
5040,3270,2986
5040,3270,2989
5040,3271,2989
5036,3271,2989
5036,3271,2983
5036,3272,2983
5046,3272,2983
5046,3272,2990
5046,3270,2990
5045,3270,2990
5045,3270,2989
5045,3265,2989
5042,3265,2989
5042,3265,2988
5042,3268,2988
5041,3268,2988
5041,3268,2988
5041,3271,2988
5036,3271,2988
5036,3271,2985
5036,3266,2985
5037,3266,2985
5037,3266,2988
5037,3267,2988
5039,3267,2988
5039,3267,2990
5039,3269,2990
5036,3269,2990
5036,3269,2988
5036,3268,2988
5037,3268,2988
5037,3268,2989
5037,3266,2989
5034,3266,2989
5034,3266,2991
5034,3268,2991
5035,3268,2991
5035,3268,2989
5035,3268,2989
5034,3268,2989
5034,3268,2987
5034,3275,2987
5035,3275,2987
5035,3275,2991
5035,3268,2991
5040,3268,2991
5040,3268,2988
5040,3270,2988
5032,3270,2988
5032,3270,2992
5032,3271,2992
5039,3271,2992
5039,3271,2990
5039,3264,2990
5032,3264,2990
5032,3264,2989
5032,3273,2989
5028,3273,2989
5028,3273,2997
5028,3270,2997
5029,3270,2997
5029,3270,2989
5029,3269,2989
5022,3269,2989
5022,3269,2995
5022,3266,2995
5019,3266,2995
5019,3266,2993
5019,3269,2993
5019,3269,2993
5019,3269,2990
5019,3269,2990
5022,3269,2990
5022,3269,2983
5022,3264,2983
5022,3264,2983
5022,3264,2980
5022,3251,2980
5021,3251,2980
5021,3251,2969
5021,3254,2969
5015,3254,2969
5015,3254,2967
5015,3251,2967
5008,3251,2967
5008,3251,2962
5008,3240,2962
4998,3240,2962
4998,3240,2959
4998,3233,2959
5002,3233,2959
5002,3233,2960
5002,3229,2960
5003,3229,2960
5003,3229,2957
5003,3235,2957
5003,3235,2957
5003,3235,2973
5003,3236,2973
5009,3236,2973
5009,3236,2973
5009,3238,2973
5012,3238,2973
5012,3238,2976
5012,3245,2976
5013,3245,2976
5013,3245,2982
5013,3254,2982
5014,3254,2982
5014,3254,2985
5014,3258,2985
5018,3258,2985
5018,3258,2985
5018,3260,2985
5029,3260,2985
5029,3260,2992
5029,3259,2992
5027,3259,2992
5027,3259,2988
5027,3262,2988
5040,3262,2988
5040,3262,2993
5040,3262,2993
5041,3262,2993
5041,3262,2993
5041,3268,2993
5042,3268,2993
5042,3268,2989
5042,3266,2989
5042,3266,2989
5042,3266,2987
5042,3268,2987
5039,3268,2989
5039,3265,2989
5035,3265,2989
5035,3265,2992
5035,3262,2992
5036,3262,2992
5036,3262,2990
5036,3264,2990
5039,3264,2990
5039,3264,2994
5039,3264,2994
5035,3264,2994
5035,3264,2989
5035,3271,2989
5037,3271,2989
5037,3271,2993
5037,3270,2993
5035,3270,2993
5035,3270,2989
5035,3269,2989
5038,3269,2989
5038,3269,2990
5038,3265,2990
5032,3265,2990
5032,3265,2991
5032,3266,2991
5036,3266,2994
5036,3271,2994
5031,3271,2991
5031,3271,2991
5032,3271,2994
5032,3268,2994
5033,3268,2995
5033,3270,2995
5036,3270,2995
5036,3268,2995
5034,3268,2994
5034,3270,2994
5039,3270,2993
5039,3268,2993
5040,3268,2995
5040,3267,2995
5047,3267,2995
5047,3267,2995
5047,3268,2995
5048,3268,2995
5048,3267,2995
5042,3267,2995
5042,3267,2993
5042,3268,2993
5043,3268,2993
5043,3268,2997
5043,3264,2997
5041,3264,2997
5041,3264,2995
5041,3267,2995
5032,3267,2991
5032,3260,2991
5042,3260,2998
5042,3264,2998
5041,3264,2994
5041,3268,2994
5039,3268,2999
5039,3266,2999
5033,3266,2993
5033,3266,2993
5036,3266,2992
5036,3266,2992
5040,3266,2995
5040,3264,2995
5036,3264,2994
5036,3267,2994
5041,3267,2996
5041,3263,2996
5042,3263,2995
5042,3267,2995
5041,3267,2995
5041,3263,2995
5045,3263,2996
5045,3263,2996
5034,3263,2993
5034,3266,2993
5036,3266,2994
5036,3267,2994
5035,3267,2990
5035,3269,2990
5035,3269,2997
5035,3271,2997
5039,3271,2995
5039,3269,2995
5039,3269,2995
5039,3268,2995
5037,3268,2998
5037,3267,2998
5036,3267,2998
5036,3266,2998
5031,3266,2998
5031,3266,2998
5032,3266,2999
5032,3270,2999
5036,3270,3001
5036,3273,3001
5035,3273,2999
5035,3274,2999
5036,3274,2999
5036,3274,2999
5033,3274,2997
5033,3270,2997
5034,3270,2998
5034,3272,2998
5037,3272,2998
5037,3272,2998
5037,3267,2998
5038,3267,2998
5038,3267,2998
5038,3270,2998
5045,3270,2994
5045,3265,2994
5046,3265,2994
5046,3266,2994
5047,3266,2989
5047,3266,2989
5044,3266,2982
5044,3258,2982
5043,3258,2983
5043,3255,2983
5039,3255,2984
5039,3253,2984
5037,3253,2982
5037,3257,2982
5039,3257,2989
5039,3256,2989
5038,3256,2991
5038,3255,2991
5040,3255,3001
5040,3263,3001
5039,3263,2998
5039,3269,2998
5040,3269,2997
5040,3273,2997
5036,3273,3000
5036,3271,3000
5036,3271,2998
5036,3270,2998
5035,3270,2998
5035,3264,2998
5039,3264,2996
5039,3267,2996
5039,3267,3004
5039,3270,3004
5041,3270,2998
5041,3274,2998
5034,3274,2998
5034,3275,2998
5035,3275,3001
5035,3275,3001
5036,3275,2995
5036,3272,2995
5037,3272,2995
5037,3274,2995
5036,3274,2997
5036,3278,2997
5033,3278,3000
5033,3274,3000
5035,3274,3000
5035,3274,3000
5036,3274,3002
5036,3272,3002
5033,3272,3004
5033,3279,3004
5032,3279,3003
5032,3276,3003
5032,3276,3003
5032,3273,3003
5034,3273,3002
5034,3279,3002
5027,3279,3004
5027,3279,3004
5032,3279,3002
5032,3276,3002
5035,3276,3003
5035,3278,3003
5046,3278,3003
5046,3270,3003
5046,3270,2999
5046,3270,2999
5046,3272,2999
5041,3272,3002
5041,3269,3002
5044,3269,3001
5044,3271,3001
5043,3271,2997
5043,3279,2997
5036,3279,3001
5036,3275,3001
5038,3275,2997
5038,3280,2997
5034,3280,2996
5034,3276,2996
5040,3276,3002
5040,3277,3002
5029,3277,2998
5029,3274,2998
5044,3274,3003
5044,3274,3003
5037,3274,3005
5037,3273,3005
5040,3273,2998
5040,3275,2998
5042,3275,3002
5042,3275,3002
5035,3275,3000
5035,3278,3000
5039,3278,3006
5039,3275,3006
5032,3275,3001
5032,3277,3001
5031,3277,3002
5031,3276,3002
5039,3276,2999
5039,3279,2999
5037,3279,3000
5037,3276,3000
5030,3276,2998
5030,3279,2998
5031,3279,3005
5031,3282,3005
5028,3282,3000
5028,3276,3000
5030,3276,3002
5030,3281,3002
5031,3281,2998
5031,3274,2998
5028,3274,2993
5028,3286,2993
5028,3286,2993
5026,3286,2993
5026,3287,2993
5025,3287,2989
5025,3288,2989
5017,3288,2992
5017,3286,2992
5017,3286,2992
5017,3286,2992
5017,3284,2992
5016,3284,2987
5016,3283,2987
5010,3283,2988
5010,3284,2988
5010,3284,2988
5010,3284,2988
5010,3284,2988
5010,3284,2985
5002,3284,2985
5002,3283,2985
5008,3283,2987
5008,3278,2987
5010,3278,2991
5010,3281,2991
5019,3281,2995
5019,3280,2995
5019,3280,2996
5019,3280,2996
5019,3278,2996
5019,3278,2987
5024,3278,2987
5024,3276,2987
5024,3276,2987
5033,3276,2987
5033,3271,2987
5033,3271,2988
5028,3271,2988
5028,3266,2988
5034,3266,2981
5034,3256,2981
5024,3256,2983
5024,3257,2983
5024,3257,2986
5032,3257,2986
5032,3259,2986
5032,3259,2992
5027,3259,2992
5027,3260,2992
5027,3260,2995
5020,3260,2995
5020,3266,2995
5017,3266,2995
5017,3269,2995
5013,3269,3001
5013,3272,3001
5010,3272,2999
5010,3271,2999
5011,3271,2999
5011,3267,2999
5015,3267,2997
5015,3265,2997
5013,3265,3000
5013,3258,3000
5007,3258,2996
5007,3264,2996
5008,3264,3001
5008,3266,3001
5012,3266,2993
5012,3266,2993
5019,3266,2998
5019,3265,2998
5011,3265,2994
5011,3264,2994
5011,3264,3003
5021,3264,3003
5021,3270,3003
5018,3270,3004
5018,3272,3004
5014,3272,3004
5014,3274,3004
5014,3274,2997
5024,3274,2997
5024,3281,3000
5024,3281,3000
5024,3279,2998
5024,3279,2998
5024,3283,3002
5024,3283,3002
5024,3285,3001
5023,3285,3001
5023,3285,3001
5023,3285,3004
5019,3285,3004
5019,3284,3004
5019,3284,3006
5026,3284,3006
5026,3291,3006
5026,3291,3003
5027,3291,3003
5027,3293,3004
5030,3293,3004
5030,3290,3006
5029,3290,3006
5029,3292,3005
5042,3292,3005
5042,3288,3002
5036,3288,3002
5036,3291,3000
5041,3291,3000
5041,3284,2996
5036,3284,2996
5036,3285,3002
5038,3285,3002
5038,3284,3002
5038,3284,3002
5038,3286,2998
5033,3286,2998
5033,3287,2994
5027,3287,2994
5027,3287,3000
5029,3287,3000
5029,3284,3000
5028,3284,3000
5028,3285,2995
5024,3285,2995
5024,3285,2998
5029,3285,2998
5029,3286,3000
5033,3286,3000
5033,3287,2995
5029,3287,2995
5029,3283,2997
5031,3283,2997
5031,3287,2991
5031,3287,2991
5031,3291,2995
5030,3291,2995
5030,3289,3000
5024,3289,3000
5024,3287,2996
5023,3287,2996
5023,3295,2996
5021,3295,2996
5021,3295,2998
5021,3293,2998
5022,3293,2998
5022,3293,2997
5021,3293,2997
5021,3293,2998
5021,3289,2998
5020,3289,2998
5020,3289,2995
5019,3289,2995
5019,3288,2999
5018,3288,2999
5018,3290,2998
5023,3290,2998
5023,3291,2995
5021,3291,2995
5021,3293,2996
5021,3293,2996
5021,3289,3000
5032,3289,3000
5032,3291,2997
5026,3291,2997
5026,3289,3000
5028,3289,3000
5028,3292,2995
5025,3292,2995
5025,3293,3001
5026,3293,3001
5026,3291,3004
5027,3291,3004
5027,3291,2998
5031,3291,2998
5031,3292,3000
5032,3292,3000
5032,3289,2996
5034,3289,2996
5034,3290,2992
5036,3290,2992
5036,3288,2982
5031,3288,2982
5031,3286,2986
5036,3286,2986
5036,3280,2980
5032,3280,2980
5032,3280,2983
5023,3278,2983
5023,3276,2985
5027,3276,2985
5027,3276,2987
5027,3282,2987
5027,3282,2990
5029,3283,2990
5029,3283,3000
5025,3286,3000
5025,3286,2997
5025,3292,2997
5025,3292,3005
5028,3295,3005
5028,3295,3007
5022,3298,3007
5022,3298,3000
5027,3291,3000
5027,3291,3004
5022,3294,3004
5022,3294,3007
5025,3293,3007
5025,3293,3005
5025,3294,3005
5024,3294,3005
5024,3294,3003
5018,3296,3003
5018,3296,3008
5020,3293,3008
5020,3293,3002
5020,3293,3002
5021,3293,3002
5021,3293,3010
5021,3295,3010
5015,3295,3010
5015,3295,3002
5015,3295,3002
5022,3295,3002
5022,3295,3007
5022,3305,3007
5019,3305,3007
5019,3305,3003
5017,3295,3003
5017,3295,3005
5017,3299,3005
5017,3299,3007
5017,3299,3007
5020,3299,3007
5020,3299,3000
5020,3301,3000
5027,3301,3000
5027,3301,3006
5027,3301,3006
5024,3301,3006
5024,3301,3005
5023,3294,3005
5023,3294,3000
5023,3303,3000
5025,3303,3000
5025,3303,3002
5025,3308,3002
5030,3308,3002
5030,3308,3004
5030,3305,3004
5029,3305,3004
5029,3305,3000
5029,3304,3000
5027,3304,3000
5027,3304,3001
5036,3302,3001
5036,3302,3004
5033,3300,3004
5033,3300,2997
5031,3297,2997
5031,3297,2998
5033,3295,2998
5033,3295,2993
5031,3297,2993
5031,3297,2997
5028,3297,2997
5028,3297,3004
5030,3301,3004
5030,3301,3000
5025,3303,3000
5025,3303,2998
5025,3301,2998
5024,3301,2998
5024,3301,2998
5021,3302,2998
5021,3302,2994
5019,3301,2994
5019,3301,2997
5019,3301,2997
5027,3301,2997
5027,3301,2995
5025,3304,2995
5025,3304,2994
5025,3295,2994
5026,3295,2994
5026,3295,2998
5025,3298,2998
5025,3298,2993
5027,3298,2993
5027,3298,2995
5028,3299,2995
5028,3299,2999
5023,3297,2999
5023,3297,2995
5024,3298,2995
5024,3298,2994
5024,3305,2994
5016,3305,2994
5016,3305,2993
5016,3299,2993
5016,3299,2993
5016,3299,2992
5016,3299,2992
5020,3299,2992
5020,3299,2988
5020,3301,2988
5009,3301,2988
5009,3301,2986
5019,3305,2986
5019,3305,2984
5012,3303,2984
5012,3303,2986
5008,3302,2986
5008,3302,2985
5007,3306,2985
5007,3306,2982
4994,3304,2982
4994,3304,2984
4994,3299,2984
4994,3299,2983
4993,3301,2983
4993,3301,2985
5000,3306,2985
5000,3306,2986
5005,3305,2986
5005,3305,2995
5005,3303,2995
5005,3303,2988
5010,3303,2988
5010,3303,2994
5017,3301,2994
5017,3301,2999
5021,3308,2999
5021,3308,2996
5026,3299,2996
5026,3299,2995
5027,3302,2995
5027,3302,2998
5029,3296,2998
5029,3296,2988
5024,3294,2988
5024,3294,2987
5026,3295,2987
5026,3295,2984
5019,3289,2984
5019,3289,2980
5022,3285,2980
5022,3285,2983
5025,3283,2983
5025,3283,2992
5025,3284,2992
5024,3284,2992
5024,3284,2996
5024,3293,2996
5024,3293,2995
5022,3294,2995
5022,3294,3001
5023,3302,3001
5023,3302,2997
5015,3301,2997
5015,3301,2994
5013,3299,2994
5013,3299,2998
5006,3296,2998
5006,3296,2997
5003,3296,2997
5003,3296,2994
5004,3298,2994
5004,3298,2996
4997,3292,2996
4997,3292,2998
4999,3291,2998
4999,3291,2995
5002,3285,2995
5002,3285,2996
5000,3284,2996
5000,3284,2997
5001,3278,2997
5001,3278,2995
4996,3289,2995
4996,3289,2997
5005,3279,2997
5005,3279,2997
4994,3294,2997
4994,3294,3002
5007,3290,3002
5007,3290,3002
5005,3289,3002
5005,3289,2998
5006,3286,2998
5006,3286,2994
5009,3290,2994
5009,3290,2998
5010,3297,2998
5010,3297,3001
5019,3292,3001
5019,3292,2998
5025,3302,2998
5025,3302,2999
5029,3304,2999
5029,3304,3001
5029,3305,3001
5029,3305,2995
5031,3301,2995
5031,3301,2994
5030,3301,2994
5030,3302,2994
5030,3302,2996
5027,3303,2996
5027,3303,2993
5024,3298,2993
5024,3298,2993
5024,3298,2993
5024,3301,2993
5024,3301,2994
5025,3299,2994
5025,3299,2994
5019,3299,2994
5019,3299,2995
5018,3299,2995
5018,3299,2995
5018,3300,2995
5018,3300,2995
5024,3309,2995
5024,3309,2997
5032,3304,2997
5032,3304,2996
5023,3305,2996
5023,3305,2998
5028,3303,2998
5028,3303,2995
5029,3300,2995
5029,3300,3000
5024,3304,3000
5024,3304,2993
5028,3299,2993
5028,3299,2992
5020,3300,2992
5020,3300,2992
5026,3303,2992
5026,3303,2993
5026,3297,2993
5026,3297,2993
5020,3303,2993
5020,3303,2994
5022,3303,2994
5022,3303,2995
5021,3300,2995
5021,3300,2997
5018,3304,2997
5018,3304,3000
5017,3304,3000
5017,3309,3000
5017,3309,3001
5017,3306,3001
5017,3306,2997
5017,3304,2997
5017,3304,2993
5019,3302,2993
5019,3302,3000
5017,3301,3000
5017,3301,2999
5014,3305,2999
5014,3305,3002
5017,3307,3002
5017,3307,3001
5016,3308,3001
5016,3308,2999
5019,3307,2999
5019,3307,3003
5024,3306,3003
5024,3306,3000
5029,3306,3000
5029,3306,2997
5025,3305,2997
5025,3305,2997
5026,3303,2997
5026,3303,2999
5030,3302,2999
5030,3302,2997
5026,3302,2997
5026,3297,2997
5026,3297,2997
5022,3301,2997
5022,3301,2987
5019,3300,2987
5019,3300,2987
5022,3291,2987
5022,3291,2991
5021,3290,2991
5021,3290,2979
5022,3290,2979
5022,3287,2979
5022,3287,2983
5027,3287,2983
5027,3286,2983
5027,3286,2985
5025,3286,2985
5025,3287,2985
5025,3287,2992
5024,3290,2992
5024,3290,2999
5029,3293,2999
5029,3293,3000
5027,3301,3000
5027,3301,3000
5023,3306,3000
5023,3306,3001
5025,3307,3001
5025,3307,2995
5025,3301,2995
5025,3301,2998
5023,3303,2998
5023,3303,3000
5022,3301,3000
5022,3301,3000
5021,3306,3000
5021,3306,2999
5020,3304,2999
5020,3304,3006
5023,3306,3006
5023,3306,3005
5018,3306,3005
5018,3305,3005
5018,3305,3005
5017,3305,3005
5017,3307,3005
5017,3307,3005
5018,3307,3005
5018,3303,3005
5018,3303,3003
5017,3303,3003
5017,3305,3003
5017,3305,3008
5019,3305,3008
5019,3307,3008
5019,3307,3002
5012,3307,3002
5012,3301,3002
5012,3301,3007
5014,3301,3007
5014,3303,3007
5014,3303,3000
5016,3303,3000
5016,3306,3000
5016,3306,3006
5016,3306,3006
5016,3305,3006
5016,3305,3006
5018,3305,3006
5018,3304,3006
5018,3304,3007
5023,3304,3007
5023,3304,3007
5023,3304,3004
5025,3309,3004
5025,3309,3007
5027,3309,3007
5027,3309,3007
5027,3309,3004
5027,3309,3004
5027,3297,3004
5027,3297,3000
5027,3297,3000
5027,3305,3000
5027,3305,3001
5030,3305,3001
5030,3299,3001
5030,3299,3000
5029,3299,3000
5029,3302,3000
5029,3302,3001
5025,3304,3001
5025,3304,3002
5024,3304,3002
5024,3300,3002
5024,3300,3005
5022,3300,3005
5022,3297,3005
5022,3297,3003
5020,3297,3003
5020,3305,3003
5020,3305,3010
5027,3305,3010
5027,3303,3010
5027,3303,3004
5026,3303,3004
5026,3305,3004
5026,3305,3002
5022,3305,3002
5022,3300,3002
5022,3300,3002
5022,3300,3002
5022,3302,3002
5022,3302,3002
5027,3302,3002
5027,3300,3002
5027,3300,3006
5022,3300,3006
5022,3300,3006
5022,3300,2997
5017,3300,2997
5017,3301,2997
5017,3301,2995
5019,3301,2995
5019,3298,2995
5019,3298,2991
5009,3298,2991
5009,3305,2991
5009,3305,2992
5005,3305,2992
5005,3297,2992
5005,3297,2996
5004,3297,2996
5004,3301,2996
5004,3301,2989
4998,3301,2989
4998,3302,2989
4998,3302,2990
4990,3302,2990
4990,3307,2990
4990,3307,2990
5000,3307,2990
5000,3300,2990
5000,3300,2992
4994,3300,2992
4994,3307,2992
4994,3307,3002
4995,3307,3002
4995,3305,3002
4995,3305,2996
4998,3305,2996
4998,3307,2996
4998,3307,3002
5001,3307,3002
5001,3302,3002
5001,3302,3004
5009,3302,3004
5009,3299,3004
5009,3299,3009
5009,3299,3009
5009,3305,3009
5009,3305,3007
5014,3305,3007
5014,3304,3007
5014,3304,3012
5018,3304,3012
5018,3308,3012
5018,3308,3009
5022,3308,3009
5022,3307,3009
5022,3307,3010
5025,3307,3010
5025,3305,3010
5025,3305,3008
5036,3305,3008
5036,3301,3008
5036,3301,3013
5033,3301,3013
5033,3300,3013
5033,3300,3007
5038,3300,3007
5038,3301,3007
5038,3301,3010
5031,3301,3010
5031,3304,3010
5031,3304,3008
5030,3304,3008
5030,3299,3008
5030,3299,3008
5031,3299,3008
5031,3304,3008
5031,3304,3009
5028,3304,3009
5028,3300,3009
5028,3300,3002
5025,3300,3002
5025,3299,3002
5025,3299,2999
5027,3299,2999
5027,3298,2999
5027,3298,3000
5024,3298,3000
5024,3298,3000
5024,3298,2994
5025,3298,2994
5025,3294,2994
5025,3294,2989
5028,3294,2989
5028,3282,2989
5028,3282,2993
5027,3282,2993
5027,3289,2993
5027,3289,3002
5023,3289,3002
5023,3289,3002
5023,3289,3007
5027,3289,3007
5027,3292,3007
5027,3292,3003
5032,3292,3003
5032,3298,3003
5032,3298,3011
5021,3298,3011
5021,3301,3011
5021,3301,3014
5026,3301,3014
5026,3303,3014
5026,3303,3009
5025,3303,3009
5025,3302,3009
5025,3302,3011
5023,3302,3011
5023,3305,3012
5020,3305,3012
5020,3305,3012
5020,3305,3007
5018,3305,3007
5018,3304,3007
5018,3304,3008
5020,3304,3008
5020,3303,3008
5020,3303,3009
5016,3303,3009
5016,3300,3009
5016,3300,3016
5022,3300,3016
5022,3301,3016
5022,3301,3012
5020,3301,3012
5020,3300,3010
5017,3300,3010
5017,3310,3011
5018,3310,3011
5018,3305,3006
5019,3305,3006
5019,3305,3014
5012,3305,3014
5012,3303,3008
5009,3303,3008
5009,3306,3014
5009,3306,3014
5009,3303,3010
4996,3303,3010
4996,3301,3014
4999,3301,3014
4999,3300,3008
5013,3300,3008
5013,3297,3013
5008,3297,3013
5008,3293,3012
5011,3293,3012
5011,3295,3014
5002,3295,3014
5002,3287,3016
5003,3287,3016
5003,3285,3015
5001,3285,3015
5001,3287,3009
5002,3287,3009
5002,3289,3007
5009,3289,3007
5009,3290,3013
5010,3290,3013
5010,3288,3011
5016,3288,3011
5016,3290,3010
5016,3290,3010
5016,3296,3013
5018,3296,3013
5018,3295,3017
5019,3295,3017
5019,3297,3011
5021,3297,3011
5021,3296,3011
5021,3296,3011
5021,3300,3015
5022,3300,3015
5022,3304,3009
5023,3304,3009
5023,3304,3015
5024,3304,3015
5024,3309,3014
5025,3309,3014
5025,3308,3010
5026,3308,3010
5026,3307,3012
5021,3307,3012
5021,3303,3012
5019,3303,3012
5019,3308,3011
5020,3308,3011
5020,3306,3014
5020,3306,3014
5020,3307,3010
5017,3307,3010
5017,3309,3016
5023,3309,3016
5023,3310,3013
5024,3310,3013
5024,3312,3014
5019,3312,3014
5019,3311,3019
5021,3311,3019
5021,3312,3015
5022,3312,3015
5022,3312,3015
5022,3307,3015
5015,3307,3015
5015,3310,3018
5023,3310,3018
5023,3308,3020
5017,3308,3020
5017,3311,3016
5015,3311,3016
5015,3308,3016
5023,3308,3016
5023,3308,3019
5025,3308,3019
5025,3315,3018
5025,3315,3018
5025,3313,3016
5028,3313,3016
5028,3312,3015
5027,3312,3015
5027,3311,3016
5029,3311,3016
5029,3310,3013
5028,3310,3013
5028,3312,3015
5025,3312,3015
5025,3312,3015
5025,3311,3015
5029,3311,3015
5029,3311,3008
5029,3310,3008
5025,3310,3008
5025,3310,3009
5025,3309,3009
5020,3309,3009
5020,3307,3000
5024,3307,3000
5024,3301,2998
5016,3301,2998
5016,3301,2998
5022,3301,2998
5022,3297,3000
5026,3297,3000
5026,3297,3003
5026,3299,3003
5023,3299,3003
5023,3299,3008
5023,3306,3008
5026,3306,3008
5026,3306,3009
5026,3307,3009
5023,3307,3009
5023,3307,3010
5023,3308,3010
5022,3308,3010
5022,3308,3014
5022,3317,3014
5023,3317,3014
5023,3317,3022
5023,3314,3022
5023,3314,3022
5023,3310,3015
5021,3310,3015
5021,3310,3017
5021,3312,3017
5021,3312,3017
5021,3312,3018
5021,3312,3018
5024,3312,3018
5024,3312,3021
5024,3316,3021
5025,3316,3021
5025,3316,3024
5025,3318,3024
5018,3318,3024
5018,3318,3021
5018,3312,3021
5025,3312,3021
5025,3312,3018
5025,3316,3018
5021,3316,3018
5021,3316,3014
5021,3313,3014
5022,3313,3014
5022,3313,3017
5022,3311,3017
5018,3311,3017
5018,3311,3014
5018,3313,3014
5023,3313,3014
5023,3313,3017
5023,3321,3017
5016,3321,3017
5016,3321,3018
5016,3318,3018
5016,3318,3018
5016,3318,3019
5016,3321,3019
5015,3321,3019
5015,3321,3021
5015,3321,3021
5021,3321,3021
5021,3321,3018
5021,3313,3018
5020,3313,3018
5020,3313,3021
5020,3318,3021
5031,3318,3021
5031,3318,3018
5031,3319,3018
5030,3319,3018
5030,3319,3016
5030,3319,3016
5033,3319,3016
5033,3319,3017
5033,3323,3017
5023,3323,3017
5023,3323,3015
5023,3313,3015
5015,3313,3015
5015,3313,3007
5015,3317,3007
5019,3317,3007
5019,3317,3004
5019,3316,3004
5012,3316,3004
5012,3316,3007
5012,3323,3007
5014,3323,3007
5014,3323,3006
5014,3316,3006
5006,3316,3006
5006,3316,3006
5006,3315,3006
4999,3315,3006
4999,3315,3000
4999,3318,3000
5000,3318,3000
5000,3318,3000
5000,3321,3000
4998,3321,3000
4998,3321,3001
4998,3312,3001
5006,3312,3001
5006,3312,3007
5006,3319,3007
5002,3319,3007
5002,3319,3006
5002,3316,3006
5007,3316,3006
5007,3316,3012
5007,3322,3012
5010,3322,3012
5010,3322,3014
5010,3318,3014
5007,3318,3014
5007,3318,3013
5007,3322,3013
5010,3322,3013
5010,3322,3013
5010,3317,3013
5016,3317,3013
5016,3317,3019
5016,3315,3019
5018,3315,3019
5018,3315,3019
5018,3320,3019
5021,3320,3019
5021,3320,3017
5021,3321,3017
5023,3321,3017
5023,3321,3017
5023,3319,3017
5017,3319,3017
5017,3319,3022
5017,3325,3022
5018,3325,3022
5018,3325,3020
5018,3322,3020
5014,3322,3023
5014,3316,3023
5017,3316,3023
5017,3316,3019
5017,3323,3019
5020,3323,3019
5020,3323,3023
5020,3323,3023
5016,3323,3023
5016,3323,3023
5016,3321,3023
5013,3321,3023
5013,3321,3019
5013,3320,3019
5019,3320,3019
5019,3320,3025
5019,3321,3025
5017,3321,3025
5017,3321,3023
5017,3322,3023
5016,3322,3022
5016,3327,3022
5026,3327,3022
5026,3327,3021
5026,3320,3021
5021,3320,3021
5021,3320,3022
5021,3320,3022
5026,3320,3022
5026,3320,3020
5026,3322,3020
5026,3322,3020
5026,3322,3020
5026,3318,3020
5027,3318,3017
5027,3315,3017
5030,3315,3017
5030,3315,3013
5030,3321,3013
5027,3321,3013
5027,3321,3019
5027,3321,3019
5025,3321,3019
5025,3321,3014
5025,3321,3014
5019,3321,3014
5019,3321,3021
5019,3322,3021
5020,3322,3023
5020,3327,3023
5025,3327,3011
5025,3317,3011
5020,3317,3009
5020,3316,3009
5024,3316,3007
5024,3318,3007
5021,3318,3007
5021,3318,3007
5021,3309,3007
5021,3309,3007
5021,3309,3002
5021,3303,3002
5022,3303,3002
5022,3303,2996
5022,3306,2996
5024,3306,3004
5024,3309,3004
5028,3309,3011
5028,3309,3011
5026,3309,3014
5026,3312,3014
5024,3312,3018
5024,3319,3018
5015,3319,3014
5015,3322,3014
5019,3322,3014
5019,3324,3014
5022,3324,3019
5022,3320,3019
5019,3320,3018
5019,3321,3018
5021,3321,3018
5021,3316,3018
5018,3316,3017
5018,3321,3017
5016,3321,3019
5016,3325,3019
5017,3325,3018
5017,3323,3018
5014,3323,3020
5014,3326,3020
5020,3326,3020
5020,3329,3020
5014,3329,3018
5014,3329,3018
5017,3329,3019
5017,3324,3019
5011,3324,3014
5011,3324,3014
5013,3324,3019
5013,3327,3019
5013,3327,3021
5013,3326,3021
5023,3326,3016
5023,3327,3016
5022,3327,3021
5022,3322,3021
5024,3322,3023
5024,3317,3023
5027,3317,3019
5027,3318,3019
5023,3318,3014
5023,3315,3014
5027,3315,3021
5027,3318,3021
5020,3318,3014
5020,3316,3014
5021,3316,3013
5021,3319,3013
5027,3319,3013
5027,3319,3020
5027,3324,3020
5029,3324,3012
5029,3322,3012
5026,3322,3018
5026,3325,3018
5024,3325,3014
5024,3322,3014
5024,3322,3018
5024,3324,3018
5017,3324,3017
5017,3316,3017
5013,3316,3014
5013,3318,3014
5010,3318,3012
5010,3312,3012
5005,3312,3015
5005,3314,3015
5003,3314,3013
5003,3316,3013
4997,3316,3015
4997,3311,3015
4996,3311,3015
4996,3312,3015
4998,3312,3015
4998,3310,3015
4993,3310,3014
4993,3308,3014
4987,3308,3009
4987,3307,3009
4991,3307,3016
4991,3301,3016
4983,3301,3012
4983,3303,3012
4988,3303,3017
4988,3304,3017
4992,3304,3015
4992,3305,3015
4996,3305,3015
4996,3306,3015
4996,3306,3019
4995,3306,3019
4995,3310,3019
5000,3310,3017
5000,3312,3017
5003,3312,3014
5003,3314,3014
5009,3314,3016
5009,3318,3016
5006,3318,3017
5006,3322,3017
5011,3322,3019
5011,3318,3019
5015,3318,3022
5015,3320,3022
5015,3320,3023
5015,3321,3023
5029,3321,3024
5029,3324,3024
5021,3324,3023
5021,3319,3023
5024,3319,3021
5024,3319,3021
5024,3319,3019
5029,3319,3019
5029,3328,3019
5025,3328,3023
5025,3323,3023
5023,3323,3016
5023,3328,3016
5027,3328,3019
5027,3326,3019
5022,3326,3013
5022,3324,3013
5020,3324,3011
5020,3318,3011
5019,3318,3011
5019,3318,3011
5025,3318,3011
5025,3317,3011
5021,3317,2995
5021,3311,2995
5019,3311,2996
5019,3303,2996
5019,3303,2998
5019,3301,2998
5017,3301,2999
5017,3306,2999
5023,3306,3006
5023,3305,3006
5021,3305,3009
5021,3313,3009
5023,3313,3003
5023,3315,3003
5018,3315,3009
5018,3322,3009
5016,3322,3013
5016,3325,3013
5015,3325,3011
5015,3327,3011
5011,3327,3013
5011,3329,3013
5007,3329,3016
5007,3323,3016
5007,3323,3018
5017,3323,3018
5017,3326,3018
5012,3326,3021
5012,3328,3021
5011,3328,3022
5011,3325,3022
5011,3325,3014
5011,3323,3014
5008,3323,3010
5008,3327,3010
5005,3327,3006
5005,3324,3006
5005,3324,3006
5003,3324,3006
5003,3320,3006
5003,3320,3007
5004,3320,3007
5004,3324,3007
5005,3324,3002
5005,3327,3002
5003,3327,3004
5003,3323,3004
5006,3323,3002
5006,3322,3002
5005,3322,2999
5005,3322,2999
5006,3322,2998
5006,3321,2998
5006,3321,2998
5003,3321,2998
5003,3320,2998
5003,3320,3002
5002,3320,3002
5002,3315,3002
5002,3315,3003
5003,3315,3003
5003,3321,3003
5000,3321,3004
5000,3321,3004
5004,3321,3005
5004,3319,3005
5009,3319,3008
5009,3317,3008
5009,3317,3011
5007,3317,3011
5007,3319,3011
5007,3319,3010
5013,3319,3010
5013,3320,3010
5013,3320,3010
5015,3320,3010
5015,3319,3010
5015,3319,3007
5013,3319,3007
5013,3320,3007
5014,3320,3004
5014,3319,3004
5016,3319,3011
5016,3322,3011
5015,3322,3010
5015,3319,3010
5015,3319,3009
5015,3319,3009
5013,3319,3011
5013,3321,3011
5013,3321,3006
5009,3321,3006
5009,3318,3006
5009,3318,3007
5010,3318,3007
5010,3320,3007
5010,3320,3008
5016,3320,3008
5016,3322,3008
5016,3322,3008
5006,3322,3008
5006,3315,3008
5006,3315,3012
5013,3315,3012
5013,3321,3012
5013,3321,3012
5015,3321,3012
5015,3318,3012
5015,3318,3010
5013,3318,3010
5013,3319,3010
5013,3319,3008
5008,3319,3008
5008,3316,3008
5008,3316,3010
5006,3316,3010
5006,3322,3010
5006,3322,3011
5007,3322,3011
5007,3324,3011
5007,3324,3010
5005,3324,3010
5005,3321,3010
5005,3321,3009
5012,3321,3009
5012,3321,3009
5012,3321,3009
5009,3321,3009
5009,3316,3009
5009,3316,3007
5015,3316,3007
5015,3321,3007
5015,3321,3008
5009,3321,3008
5009,3315,3008
5009,3315,3011
5018,3315,3011
5018,3320,3011
5018,3320,3009
5016,3320,3009
5016,3322,3009
5016,3322,3009
5020,3322,3009
5020,3319,3009
5020,3319,3012
5016,3319,3012
5016,3315,3012
5016,3315,3011
5021,3315,3011
5021,3319,3011
5021,3319,3007
5017,3319,3007
5017,3318,3007
5017,3318,3008
5017,3318,3008
5017,3314,3008
5017,3314,3009
5015,3314,3009
5015,3317,3009
5015,3317,3001
5014,3317,3001
5014,3314,3001
5014,3314,3008
5016,3314,3008
5016,3314,3008
5016,3314,3004
5012,3314,3004
5012,3315,3004
5012,3315,3006
5014,3315,3006
5014,3320,3006
5014,3320,3006
5011,3320,3006
5011,3310,3006
5011,3310,3002
5007,3310,3002
5007,3313,3002
5007,3313,2999
5009,3313,2999
5009,3314,2999
5009,3314,2997
5010,3314,2997
5010,3309,2997
5010,3309,2987
5006,3309,2987
5006,3304,2987
5006,3304,2989
5008,3304,2989
5008,3297,2989
5008,3297,2987
5010,3297,2987
5010,3300,2987
5010,3300,2992
5006,3300,2992
5006,3298,2992
5006,3298,2995
5006,3298,2995
5006,3300,2995
5006,3300,3001
5004,3300,3001
5004,3305,3001
5004,3305,3002
5004,3305,3002
5004,3313,3002
5004,3313,3014
5008,3313,3014
5008,3317,3014
5008,3317,3005
5011,3317,3005
5011,3313,3005
5011,3313,3003
5002,3313,3003
5002,3316,3003
5002,3316,3005
5004,3316,3005
5004,3320,3005
5004,3320,3006
5010,3320,3006
5010,3312,3006
5010,3312,3002
4999,3312,3002
4999,3315,3002
4999,3315,3005
5006,3315,3005
5006,3316,3005
5006,3316,3006
5004,3316,3006
5004,3319,3006
5004,3319,3007
5002,3319,3007
5002,3313,3007
5002,3313,3006
5000,3313,3006
5000,3316,3008
5004,3316,3008
5004,3319,3008
5004,3319,3011
5003,3319,3011
5003,3313,3011
5003,3313,3010
5008,3313,3010
5008,3316,3010
5008,3316,3009
5013,3316,3009
5013,3314,3011
5016,3314,3011
5016,3314,3011
5016,3314,3011
5016,3310,3004
5013,3310,3004
5013,3310,3010
5015,3310,3010
5015,3311,3010
5015,3311,3005
5009,3311,3005
