2589,2836,2828
2590,2838,2831
2595,2836,2829
2595,2836,2829
2592,2836,2829
2592,2836,2830
2592,2836,2830
2590,2836,2830
2590,2836,2834
2590,2836,2834
2579,2836,2834
2579,2836,2831
2579,2837,2831
2572,2837,2831
2572,2837,2831
2572,2835,2831
2569,2835,2831
2569,2835,2832
2569,2835,2832
2564,2835,2832
2564,2835,2828
2564,2834,2828
2567,2834,2828
2567,2834,2829
2567,2836,2829
2568,2836,2829
2568,2836,2832
2568,2834,2832
2570,2834,2832
2570,2834,2830
2570,2834,2830
2571,2834,2834
2571,2832,2834
2571,2832,2831
2571,2833,2831
2574,2833,2831
2574,2833,2830
2574,2833,2830
2574,2833,2830
2574,2833,2832
2574,2835,2832
2570,2835,2832
2570,2835,2832
2570,2832,2832
2575,2832,2832
2575,2832,2833
2575,2833,2833
2582,2833,2831
2582,2834,2831
2585,2834,2833
2585,2838,2833
2577,2838,2834
2577,2835,2834
2578,2835,2834
2578,2835,2828
2578,2840,2828
2574,2840,2828
2574,2840,2830
2574,2837,2830
2577,2837,2830
2577,2837,2832
2577,2833,2832
2575,2833,2835
2575,2834,2835
2577,2834,2827
2577,2833,2827
2577,2833,2828
2577,2836,2828
2578,2836,2838
2578,2838,2838
2581,2838,2851
2581,2838,2851
2584,2838,2864
2584,2835,2864
2586,2835,2860
2586,2837,2860
2594,2837,2855
2594,2828,2855
2591,2828,2845
2591,2830,2845
2591,2830,2843
2591,2827,2843
2593,2827,2830
2593,2813,2830
2595,2813,2812
2595,2837,2812
2591,2837,2824
2591,2846,2824
2597,2846,2830
2597,2855,2830
2600,2855,2827
2600,2853,2827
2599,2853,2834
2599,2860,2834
2597,2860,2836
2597,2864,2836
2598,2864,2832
2598,2845,2832
2598,2845,2835
2598,2830,2835
2594,2830,2831
2594,2828,2831
2590,2828,2832
2590,2827,2832
2596,2827,2836
2596,2831,2836
2591,2831,2836
2591,2836,2836
2593,2836,2839
2593,2839,2839
2599,2839,2836
2599,2838,2836
2596,2838,2831
2596,2835,2831
2599,2835,2842
2599,2833,2842
2595,2833,2836
2595,2834,2836
2592,2834,2837
2592,2836,2837
2600,2836,2834
2600,2831,2834
2600,2831,2829
2600,2832,2829
2603,2832,2839
2603,2833,2839
2599,2833,2839
2599,2833,2837
2599,2833,2837
2602,2833,2840
2602,2838,2840
2596,2838,2838
2596,2840,2838
2594,2840,2834
2594,2840,2834
2597,2840,2837
2597,2833,2837
2596,2833,2837
2596,2835,2837
2601,2835,2840
2601,2839,2840
2595,2839,2838
2595,2836,2838
2595,2836,2840
2595,2843,2840
2591,2843,2838
2591,2840,2838
2593,2840,2836
2593,2842,2836
2602,2842,2836
2602,2844,2836
2609,2844,2835
2609,2840,2835
2619,2840,2836
2619,2835,2836
2627,2835,2839
2627,2840,2839
2631,2840,2838
2631,2836,2838
2641,2836,2838
2641,2836,2838
2643,2836,2834
2643,2839,2834
2636,2839,2838
2636,2836,2838
2637,2836,2837
2637,2836,2837
2636,2836,2837
2636,2837,2837
2633,2837,2840
2633,2829,2840
2631,2829,2837
2631,2833,2837
2626,2833,2837
2626,2828,2837
2626,2828,2841
2626,2827,2841
2625,2827,2840
2625,2826,2840
2621,2826,2830
2621,2823,2830
2619,2823,2833
2619,2824,2833
2604,2824,2832
2604,2815,2832
2594,2815,2840
2594,2826,2840
2601,2826,2842
2601,2837,2842
2607,2837,2834
2607,2844,2834
2612,2844,2839
2612,2848,2839
2609,2848,2843
2609,2852,2843
2606,2852,2839
2606,2856,2839
2608,2856,2837
2608,2857,2837
2608,2857,2838
2608,2859,2838
2607,2859,2838
2607,2860,2838
2611,2860,2831
2611,2863,2831
2613,2863,2826
2613,2866,2826
2612,2866,2836
2612,2868,2836
2612,2868,2848
2612,2868,2848
2612,2867,2848
2612,2867,2866
2611,2867,2866
2611,2857,2866
2611,2857,2861
2611,2853,2861
2622,2853,2861
2622,2841,2861
2616,2841,2860
2616,2832,2860
2622,2832,2856
2622,2820,2856
2618,2820,2832
2618,2811,2832
2619,2811,2808
2619,2829,2808
2617,2829,2821
2617,2848,2821
2617,2848,2833
2622,2848,2833
2622,2853,2833
2622,2853,2843
2623,2853,2843
2623,2865,2843
2623,2865,2851
2629,2865,2851
2629,2870,2851
2629,2870,2860
2629,2873,2860
2631,2873,2862
2631,2853,2862
2636,2853,2861
2636,2836,2861
2632,2836,2858
2632,2830,2858
2633,2830,2857
2633,2833,2857
2623,2833,2857
2623,2840,2857
2623,2840,2854
2623,2840,2854
2631,2840,2854
2631,2844,2854
2623,2844,2850
2623,2845,2850
2623,2845,2850
2618,2845,2850
2618,2839,2850
2618,2839,2838
2616,2839,2838
2616,2845,2838
2616,2845,2824
2615,2845,2824
2615,2849,2824
2615,2849,2821
2623,2849,2821
2623,2838,2821
2623,2838,2828
2640,2838,2828
2640,2843,2828
2639,2843,2825
2639,2842,2825
2640,2842,2830
2640,2842,2830
2649,2842,2834
2649,2843,2834
2648,2843,2836
2648,2840,2836
2643,2840,2835
2643,2841,2835
2643,2841,2843
2648,2841,2843
2648,2847,2843
2648,2847,2841
2658,2847,2841
2658,2841,2841
2658,2841,2845
2662,2844,2845
2662,2844,2842
2654,2844,2842
2654,2846,2842
2654,2846,2841
2644,2846,2841
2644,2845,2841
2644,2845,2837
2637,2845,2837
2637,2843,2837
2631,2843,2840
2631,2846,2840
2631,2846,2837
2628,2846,2837
2628,2842,2837
2628,2842,2843
2618,2842,2843
2618,2845,2843
2624,2845,2844
2624,2844,2844
2624,2844,2839
2618,2844,2839
2618,2847,2839
2618,2847,2846
2627,2847,2846
2627,2849,2846
2627,2849,2844
2628,2849,2844
2628,2844,2844
2628,2844,2843
2629,2844,2843
2629,2843,2843
2629,2843,2843
2630,2843,2843
2630,2846,2843
2630,2846,2847
2630,2846,2847
2630,2847,2847
2630,2847,2847
2636,2847,2847
2636,2854,2847
2636,2854,2844
2635,2854,2844
2635,2850,2844
2635,2850,2840
2639,2850,2840
2639,2849,2840
2639,2849,2846
2639,2849,2846
2639,2852,2846
2639,2852,2839
2642,2852,2839
2642,2851,2839
2642,2851,2842
2643,2851,2842
2643,2846,2842
2643,2846,2841
2646,2846,2841
2646,2846,2841
2646,2846,2844
2641,2846,2844
2641,2843,2844
2641,2843,2841
2647,2843,2841
2647,2841,2841
2647,2841,2840
2645,2841,2840
2645,2847,2840
2645,2847,2841
2649,2847,2841
2649,2844,2841
2649,2844,2840
2648,2844,2840
2648,2851,2840
2648,2851,2842
2641,2851,2842
2641,2849,2842
2641,2849,2838
2643,2849,2838
2643,2853,2838
2643,2853,2843
2644,2853,2843
2644,2851,2843
2644,2851,2845
2640,2851,2845
2640,2852,2845
2640,2852,2844
2645,2852,2844
2645,2849,2844
2645,2849,2845
2649,2849,2845
2649,2849,2845
2649,2849,2841
2639,2849,2841
2639,2846,2841
2639,2846,2847
2646,2846,2847
2646,2848,2847
2646,2848,2831
2642,2848,2831
2642,2847,2831
2642,2847,2833
2643,2847,2833
2643,2847,2833
2643,2847,2832
2638,2847,2832
2638,2848,2832
2638,2848,2849
2639,2848,2849
2639,2851,2849
2639,2851,2869
2642,2851,2869
2642,2852,2869
2642,2852,2869
2641,2852,2869
2641,2848,2869
2641,2848,2862
2642,2848,2862
2642,2847,2862
2642,2847,2858
2640,2847,2858
2640,2840,2858
2640,2840,2854
2641,2840,2854
2641,2843,2854
2641,2843,2831
2647,2843,2831
2647,2836,2831
2647,2836,2822
2636,2836,2822
2636,2857,2822
2636,2857,2833
2638,2857,2833
2638,2866,2833
2638,2866,2838
2636,2866,2838
2636,2869,2838
2636,2869,2841
2637,2869,2841
2637,2880,2841
2637,2880,2836
2645,2880,2836
2645,2888,2838
2644,2888,2838
2644,2877,2845
2631,2877,2845
2631,2852,2845
2631,2852,2841
2633,2852,2841
2633,2841,2841
2633,2841,2842
2634,2841,2842
2634,2850,2842
2634,2850,2842
2636,2850,2842
2636,2851,2842
2636,2851,2845
2631,2851,2845
2631,2856,2845
2631,2856,2845
2636,2856,2845
2636,2851,2845
2636,2851,2844
2635,2851,2844
2635,2856,2847
2640,2856,2847
2640,2853,2849
2640,2853,2849
2640,2855,2847
2640,2855,2847
2640,2856,2848
2643,2856,2848
2643,2854,2843
2647,2854,2843
2647,2857,2844
2655,2857,2844
2655,2849,2844
2655,2849,2843
2650,2849,2843
2650,2854,2843
2650,2854,2845
2641,2854,2845
2641,2863,2845
2641,2863,2845
2645,2863,2845
2645,2854,2850
2645,2854,2850
2645,2856,2850
2645,2856,2847
2647,2856,2847
2647,2853,2852
2645,2853,2852
2645,2852,2840
2645,2852,2840
2645,2860,2841
2645,2860,2841
2645,2860,2844
2651,2860,2844
2651,2861,2845
2641,2861,2845
2641,2859,2839
2643,2859,2839
2643,2858,2846
2645,2858,2846
2645,2858,2840
2644,2858,2840
2644,2865,2841
2639,2865,2841
2639,2856,2840
2637,2856,2840
2637,2859,2847
2639,2859,2847
2639,2856,2843
2641,2856,2843
2641,2853,2845
2641,2853,2845
2641,2854,2846
2632,2854,2846
2632,2857,2846
2628,2857,2846
2628,2859,2848
2621,2859,2848
2621,2858,2840
2631,2858,2840
2631,2860,2844
2626,2860,2844
2626,2862,2847
2623,2862,2847
2623,2862,2847
2632,2862,2847
2632,2861,2845
2632,2861,2845
2632,2864,2848
2643,2864,2848
2643,2859,2849
2650,2859,2849
2650,2857,2846
2655,2857,2846
2655,2857,2844
2655,2861,2844
2659,2861,2844
2659,2859,2846
2654,2859,2846
2654,2860,2852
2645,2860,2852
2645,2858,2846
2642,2858,2846
2642,2857,2841
2647,2857,2841
2647,2862,2847
2647,2862,2847
2647,2852,2845
2650,2852,2845
2650,2856,2848
2652,2856,2848
2652,2845,2849
2654,2845,2849
2654,2843,2851
2646,2843,2851
2646,2842,2847
2636,2842,2847
2636,2837,2817
2624,2837,2817
2624,2837,2826
2624,2850,2826
2620,2850,2826
2620,2850,2834
2620,2865,2834
2626,2865,2834
2626,2867,2838
2640,2867,2838
2640,2866,2858
2632,2866,2858
2632,2875,2877
2623,2875,2877
2623,2875,2872
2623,2874,2872
2630,2874,2872
2630,2874,2868
2630,2879,2868
2630,2879,2868
2630,2878,2872
2628,2878,2872
2628,2870,2875
2631,2870,2875
2631,2868,2865
2639,2868,2865
2639,2886,2851
2641,2886,2851
2641,2891,2855
2634,2891,2855
2634,2891,2855
2634,2890,2855
2634,2890,2855
2634,2884,2854
2630,2884,2854
2630,2884,2852
2630,2887,2852
2629,2887,2852
2629,2887,2858
2629,2887,2858
2630,2887,2858
2630,2887,2849
2630,2878,2849
2625,2878,2849
2625,2878,2854
2625,2852,2854
2614,2852,2854
2614,2852,2840
2614,2840,2840
2615,2840,2840
2615,2840,2831
2615,2829,2831
2617,2829,2831
2617,2829,2825
2617,2842,2825
2623,2842,2825
2623,2842,2830
2623,2848,2830
2628,2848,2830
2628,2848,2832
2628,2857,2832
2634,2857,2832
2634,2857,2838
2634,2854,2838
2636,2854,2838
2636,2854,2841
2636,2856,2841
2635,2856,2841
2635,2856,2840
2635,2857,2840
2642,2857,2840
2642,2857,2845
2642,2859,2845
2640,2859,2845
2640,2859,2843
2640,2857,2843
2644,2857,2843
2644,2857,2851
2644,2856,2851
2648,2856,2851
2648,2856,2840
2648,2855,2840
2648,2855,2840
2648,2855,2846
2648,2862,2846
2658,2862,2846
2658,2862,2846
2658,2858,2846
2660,2858,2846
2660,2858,2847
2660,2854,2847
2650,2854,2847
2650,2854,2841
2650,2858,2841
2639,2858,2841
2639,2858,2844
2639,2851,2844
2634,2851,2844
2634,2851,2846
2634,2847,2846
2631,2847,2846
2631,2847,2842
2631,2852,2842
2630,2852,2842
2630,2852,2845
2630,2852,2845
2634,2852,2845
2634,2852,2841
2634,2853,2841
2644,2853,2841
2644,2853,2844
2644,2854,2844
2626,2854,2844
2626,2854,2843
2626,2850,2843
2632,2850,2843
2632,2850,2844
2632,2846,2844
2630,2846,2844
2630,2846,2845
2630,2848,2845
2636,2848,2845
2636,2848,2842
2636,2849,2842
2636,2849,2842
2636,2849,2841
2636,2847,2841
2626,2847,2841
2626,2847,2843
2626,2850,2843
2630,2850,2843
2630,2850,2843
2630,2846,2843
2629,2846,2843
2629,2846,2840
2629,2842,2840
2630,2842,2840
2630,2842,2843
2630,2846,2843
2625,2846,2843
2625,2846,2840
2625,2843,2840
2631,2843,2840
2631,2843,2846
2631,2847,2846
2626,2847,2846
2626,2847,2837
2626,2844,2837
2625,2844,2837
2625,2844,2842
2625,2848,2842
2626,2848,2842
2626,2848,2840
2626,2841,2840
2625,2841,2840
2625,2841,2837
2625,2845,2837
2633,2845,2837
2633,2845,2843
2633,2839,2843
2621,2839,2843
2621,2839,2840
2621,2843,2840
2629,2843,2840
2629,2843,2833
2629,2842,2833
2625,2842,2833
2625,2842,2840
2625,2843,2840
2623,2843,2840
2623,2843,2838
2623,2846,2838
2625,2846,2838
2625,2846,2841
2625,2844,2841
2623,2844,2841
2623,2844,2837
2623,2845,2837
2626,2845,2837
2626,2845,2838
2626,2839,2838
2624,2839,2838
2624,2839,2837
2624,2845,2837
2623,2845,2837
2623,2845,2839
2623,2840,2839
2622,2840,2839
2622,2840,2841
2622,2844,2841
2621,2844,2841
2621,2844,2840
2621,2842,2840
2627,2842,2840
2627,2842,2847
2627,2839,2847
2629,2839,2847
2629,2839,2840
2629,2843,2840
2628,2843,2840
2628,2843,2837
2628,2847,2837
2631,2847,2837
2631,2847,2829
2631,2840,2829
2634,2840,2829
2634,2840,2837
2634,2843,2837
2634,2843,2837
2634,2843,2839
2634,2837,2839
2637,2837,2839
2637,2837,2856
2637,2840,2856
2634,2840,2856
2634,2840,2860
2634,2830,2860
2640,2830,2860
2640,2830,2865
2636,2835,2865
2636,2835,2856
2636,2829,2856
2632,2829,2856
2632,2829,2852
2632,2828,2852
2637,2828,2852
2637,2828,2841
2637,2818,2841
2639,2818,2841
2639,2818,2815
2639,2821,2815
2636,2821,2815
2636,2821,2814
2636,2839,2814
2641,2839,2814
2641,2839,2825
2641,2843,2825
2634,2843,2825
2634,2843,2829
2634,2852,2829
2638,2852,2829
2638,2852,2830
2638,2859,2830
2638,2859,2832
2639,2861,2832
2639,2861,2833
2639,2855,2833
2640,2855,2833
2640,2855,2834
2635,2835,2834
2635,2835,2832
2642,2834,2832
2642,2834,2832
2642,2817,2832
2642,2817,2836
2642,2828,2836
2641,2828,2836
2641,2828,2832
2641,2831,2832
2634,2831,2832
2634,2831,2832
2634,2831,2832
2638,2831,2832
2638,2831,2828
2638,2838,2828
2634,2838,2828
2634,2838,2834
2630,2836,2834
2630,2836,2835
2633,2838,2835
2633,2838,2832
2633,2833,2832
2633,2833,2839
2633,2827,2839
2640,2827,2839
2640,2827,2826
2640,2831,2826
2638,2831,2826
2638,2831,2830
2638,2827,2830
2632,2827,2830
2632,2827,2834
2634,2828,2834
2634,2828,2837
2634,2824,2837
2632,2824,2837
2632,2824,2830
2632,2831,2830
2635,2831,2830
2635,2831,2830
2635,2831,2830
2640,2831,2830
2640,2831,2835
2632,2826,2835
2632,2826,2833
2634,2832,2833
2634,2832,2831
2628,2829,2831
2628,2829,2837
2633,2832,2837
2633,2832,2831
2635,2827,2831
2635,2827,2834
2640,2828,2834
2640,2828,2828
2641,2834,2828
2641,2834,2836
2650,2833,2836
2650,2833,2836
2644,2827,2836
2644,2827,2836
2644,2835,2836
2644,2835,2829
2647,2831,2829
2647,2831,2830
2654,2827,2830
2654,2827,2833
2654,2825,2833
2646,2825,2833
2646,2825,2827
2646,2825,2827
2646,2825,2827
2646,2825,2832
2646,2823,2832
2644,2823,2832
2644,2823,2831
2645,2824,2831
2645,2824,2831
2650,2829,2831
2650,2829,2827
2645,2825,2827
2645,2825,2838
2651,2827,2838
2651,2827,2835
2651,2822,2835
2651,2822,2830
2646,2821,2830
2646,2821,2827
2640,2820,2827
2640,2820,2832
2642,2823,2832
2642,2823,2833
2642,2823,2833
2642,2823,2826
2641,2822,2826
2641,2822,2826
2643,2821,2826
2643,2821,2827
2649,2817,2827
2649,2817,2827
2658,2819,2827
2658,2819,2827
2669,2816,2827
2669,2816,2823
2672,2820,2823
2672,2820,2818
2672,2823,2818
2663,2823,2818
2663,2823,2818
2670,2816,2818
2670,2816,2817
2663,2814,2817
2663,2814,2816
2666,2813,2816
2666,2813,2823
2664,2811,2823
2664,2811,2827
2664,2807,2827
2664,2807,2840
2655,2807,2840
2655,2807,2852
2652,2808,2852
2652,2808,2863
2646,2805,2863
2646,2805,2868
2636,2804,2868
2636,2804,2867
2627,2792,2867
2627,2792,2853
2624,2801,2853
2624,2801,2849
2629,2810,2849
2629,2810,2844
2636,2813,2844
2636,2813,2834
2627,2812,2834
2627,2812,2824
2633,2825,2824
2633,2825,2823
2629,2838,2823
2629,2838,2819
2636,2844,2819
2636,2844,2805
2646,2856,2805
2646,2856,2804
2656,2864,2804
2656,2864,2810
2664,2857,2810
2664,2857,2813
2671,2851,2813
2671,2851,2818
2673,2845,2818
2673,2845,2818
2667,2833,2818
2667,2833,2827
2672,2820,2827
2672,2820,2825
2680,2817,2825
2680,2817,2821
2679,2807,2821
2679,2807,2817
2677,2807,2817
2677,2803,2817
2677,2803,2824
2681,2803,2824
2681,2803,2826
2678,2803,2826
2678,2803,2824
2671,2807,2824
2671,2807,2827
2661,2813,2827
2661,2813,2827
2656,2809,2827
2656,2809,2817
2642,2814,2817
2642,2814,2821
2652,2814,2821
2652,2814,2825
2647,2809,2825
2647,2809,2826
2651,2806,2826
2651,2806,2829
2655,2803,2829
2655,2803,2825
2654,2810,2825
2654,2810,2818
2654,2810,2818
2654,2810,2824
2652,2808,2824
2652,2808,2824
2647,2811,2824
2647,2811,2829
2647,2811,2829
2647,2811,2826
2650,2808,2826
2650,2808,2825
2654,2806,2825
2654,2806,2823
2652,2804,2823
2652,2804,2827
2653,2806,2827
2653,2806,2827
2647,2809,2827
2647,2809,2827
2648,2813,2827
2648,2813,2828
2652,2809,2828
2652,2809,2823
2651,2811,2823
2651,2811,2824
2649,2805,2824
2649,2805,2825
2654,2806,2825
2654,2806,2827
2656,2805,2827
2656,2805,2827
2654,2809,2827
2654,2809,2832
2664,2809,2832
2664,2809,2827
2668,2809,2827
2668,2805,2827
2668,2805,2832
2667,2805,2832
2667,2805,2830
2664,2808,2830
2664,2808,2826
2668,2800,2826
2668,2800,2823
2665,2806,2823
2665,2806,2820
2661,2800,2820
2661,2800,2827
2670,2800,2827
2670,2800,2822
2663,2807,2822
2663,2807,2828
2661,2807,2828
2661,2804,2828
2661,2804,2825
2664,2804,2825
2664,2799,2825
2664,2799,2826
2662,2799,2826
2662,2804,2826
2662,2804,2827
2660,2804,2827
2660,2800,2827
2660,2800,2824
2662,2802,2824
2662,2802,2823
2663,2807,2823
2663,2807,2823
2664,2801,2823
2664,2801,2820
2660,2796,2820
2660,2796,2827
2657,2796,2827
2657,2807,2827
2657,2807,2817
2664,2807,2817
2664,2800,2817
2664,2800,2818
2658,2800,2818
2658,2797,2818
2658,2797,2815
2657,2797,2815
2657,2799,2815
2657,2799,2827
2658,2799,2827
2658,2803,2827
2658,2803,2838
2659,2803,2838
2659,2796,2838
2659,2796,2851
2656,2802,2851
2656,2802,2846
2651,2802,2846
2651,2796,2846
2651,2796,2838
2655,2796,2838
2655,2796,2838
2655,2796,2835
2654,2796,2835
2654,2787,2835
2654,2787,2830
2655,2787,2830
2655,2786,2830
2655,2786,2800
2658,2786,2800
2658,2805,2800
2658,2805,2807
2652,2805,2807
2652,2817,2807
2652,2817,2808
2652,2817,2808
2652,2818,2808
2652,2818,2814
2652,2818,2814
2652,2821,2814
2652,2821,2818
2651,2821,2818
2651,2831,2818
2651,2831,2823
2652,2831,2823
2652,2833,2823
2652,2833,2826
2652,2833,2826
2652,2808,2826
2652,2808,2825
2654,2808,2825
2654,2797,2825
2660,2797,2825
2660,2798,2826
2656,2798,2826
2656,2806,2827
2654,2806,2827
2654,2808,2819
2654,2808,2819
2654,2806,2819
2654,2806,2830
2647,2806,2830
2647,2804,2830
2647,2804,2824
2655,2804,2824
2655,2810,2824
2655,2810,2830
2660,2810,2830
2660,2811,2830
2660,2811,2828
2661,2811,2828
2661,2804,2828
2661,2804,2833
2664,2804,2833
2664,2807,2827
2663,2807,2827
2663,2810,2825
2674,2810,2825
2674,2802,2825
2674,2802,2823
2666,2802,2823
2666,2802,2829
2668,2802,2829
2668,2801,2827
2668,2801,2827
2668,2804,2827
2668,2804,2825
2671,2804,2825
2671,2803,2825
2671,2803,2824
2666,2803,2824
2666,2807,2824
2666,2807,2824
2672,2807,2824
2672,2803,2825
2669,2803,2825
2669,2801,2824
2668,2801,2824
2668,2804,2827
2658,2804,2827
2658,2806,2829
2660,2806,2829
2660,2800,2820
2666,2800,2820
2666,2798,2821
2667,2798,2821
2667,2799,2826
2665,2799,2826
2665,2801,2823
2663,2801,2823
2663,2800,2827
2661,2800,2827
2661,2804,2821
2659,2804,2821
2659,2804,2821
2659,2804,2821
2659,2809,2819
2654,2809,2819
2654,2804,2819
2662,2804,2819
2662,2807,2822
2660,2807,2822
2660,2801,2826
2662,2801,2826
2662,2801,2822
2664,2801,2822
2664,2801,2825
2660,2801,2825
2660,2802,2832
2660,2802,2832
2660,2807,2826
2659,2807,2826
2659,2804,2824
2660,2804,2824
2660,2803,2833
2657,2803,2833
2657,2801,2833
2655,2801,2833
2655,2806,2818
2654,2806,2818
2654,2805,2815
2650,2805,2815
2650,2802,2818
2647,2802,2818
2647,2805,2819
2645,2805,2819
2645,2805,2820
2645,2807,2820
2647,2807,2820
2647,2807,2820
2647,2808,2820
2648,2808,2820
2648,2802,2830
2643,2802,2830
2643,2804,2840
2646,2804,2840
2646,2803,2850
2648,2803,2850
2648,2804,2858
2659,2804,2858
2659,2812,2859
2667,2812,2859
2667,2812,2858
2676,2812,2858
2676,2812,2855
2686,2812,2855
2686,2805,2852
2689,2805,2852
2689,2807,2847
2687,2807,2847
2687,2806,2844
2683,2806,2844
2683,2804,2852
2677,2804,2852
2677,2805,2856
2674,2805,2856
2674,2799,2853
2667,2799,2853
2667,2792,2837
2665,2792,2837
2665,2792,2826
2665,2785,2826
2672,2785,2826
2672,2785,2817
2672,2781,2817
2675,2781,2817
2675,2781,2794
2675,2785,2794
2669,2785,2794
2669,2801,2802
2672,2801,2802
2672,2801,2806
2672,2804,2806
2669,2804,2806
2669,2804,2815
2669,2818,2815
2675,2818,2815
2675,2824,2817
2679,2824,2817
2679,2831,2821
2681,2831,2821
2681,2829,2823
2680,2829,2823
2680,2824,2825
2684,2824,2825
2684,2824,2830
2684,2828,2830
2682,2828,2830
2682,2828,2830
2682,2827,2830
2674,2827,2830
2674,2830,2827
2670,2830,2827
2670,2830,2833
2664,2823,2830
2659,2823,2830
2659,2823,2824
2659,2831,2824
2653,2831,2824
2653,2831,2829
2653,2830,2829
2652,2830,2829
2652,2830,2833
2652,2827,2833
2656,2827,2833
2656,2827,2824
2656,2816,2824
2656,2816,2824
2656,2816,2830
2656,2812,2830
2661,2812,2827
2661,2805,2827
2659,2805,2827
2659,2805,2829
2659,2797,2829
2658,2797,2829
2658,2797,2831
2658,2805,2831
2664,2805,2831
2664,2805,2827
2664,2806,2827
2660,2806,2827
2660,2806,2828
2660,2803,2828
2653,2803,2828
2653,2803,2833
2653,2805,2833
2655,2805,2833
2655,2805,2830
2655,2800,2830
2651,2800,2830
2651,2804,2830
2657,2804,2830
2657,2807,2830
2651,2807,2828
2651,2815,2828
2657,2815,2828
2657,2815,2830
2657,2812,2830
2655,2812,2830
2655,2812,2822
2655,2812,2822
2656,2812,2822
2656,2812,2826
2656,2811,2826
2662,2811,2826
2662,2811,2834
2662,2805,2834
2667,2805,2834
2667,2805,2831
2667,2807,2831
2667,2807,2831
2667,2807,2831
2667,2810,2831
2660,2810,2833
2660,2813,2833
2669,2813,2826
2669,2811,2826
2669,2811,2827
2669,2805,2827
2666,2805,2829
2666,2806,2829
2667,2806,2827
2667,2805,2827
2668,2805,2826
2668,2806,2826
2669,2806,2829
2669,2809,2829
2664,2809,2830
2664,2805,2830
2664,2805,2830
2664,2808,2830
2662,2808,2830
2662,2808,2831
2662,2810,2831
2662,2810,2831
2662,2810,2825
2662,2810,2825
2661,2810,2823
2661,2805,2823
2665,2805,2832
2665,2810,2832
2666,2810,2832
2666,2810,2829
2666,2800,2829
2664,2800,2829
2664,2800,2828
2664,2810,2828
2663,2810,2827
2663,2807,2827
2665,2807,2827
2665,2807,2827
2663,2807,2830
2663,2806,2830
2668,2806,2823
2668,2806,2823
2666,2806,2826
2666,2806,2826
2662,2806,2825
2662,2804,2825
2659,2804,2829
2659,2812,2829
2661,2812,2829
2661,2812,2830
2661,2803,2830
2656,2803,2830
2656,2803,2833
2656,2808,2833
2658,2808,2833
2658,2808,2826
2658,2805,2826
2656,2805,2831
2656,2810,2831
2657,2810,2824
2657,2804,2824
2659,2804,2828
2659,2817,2828
2658,2817,2834
2658,2812,2834
2659,2812,2847
2659,2814,2847
2660,2814,2860
2660,2808,2860
2661,2808,2858
2661,2811,2858
2655,2811,2847
2655,2801,2847
2663,2801,2846
2663,2803,2846
2666,2803,2846
2666,2800,2846
2670,2800,2827
2670,2793,2827
2669,2793,2810
2669,2801,2810
2662,2801,2813
2662,2822,2813
2666,2822,2822
2666,2821,2822
2670,2821,2829
2670,2825,2829
2665,2825,2824
2665,2833,2824
2669,2833,2829
2669,2835,2829
2665,2835,2830
2665,2825,2830
2668,2825,2831
2668,2805,2831
2666,2805,2830
2666,2798,2830
2666,2798,2828
2666,2798,2828
2667,2798,2830
2667,2806,2830
2672,2806,2830
2672,2808,2830
2673,2808,2830
2673,2803,2830
2667,2803,2822
2667,2804,2822
2665,2804,2831
2665,2807,2831
2665,2807,2830
2665,2807,2830
2664,2807,2829
2664,2805,2829
2665,2805,2826
2665,2801,2826
2667,2801,2824
2667,2802,2824
2664,2802,2821
2664,2803,2821
2663,2803,2825
2663,2807,2825
2668,2807,2826
2668,2803,2826
2660,2803,2834
2660,2805,2834
2654,2805,2829
2654,2801,2829
2660,2801,2830
2660,2799,2830
2655,2799,2826
2655,2802,2826
2655,2802,2830
2665,2802,2830
2665,2805,2830
2665,2805,2824
2655,2805,2824
2655,2805,2824
2653,2805,2828
2653,2802,2828
2648,2802,2827
2648,2803,2827
2653,2803,2827
2653,2802,2827
2656,2802,2827
2656,2806,2827
2656,2806,2832
2656,2802,2832
2655,2802,2831
2655,2803,2831
2653,2803,2832
2653,2805,2832
2656,2805,2837
2656,2807,2837
2656,2807,2834
2659,2807,2834
2659,2804,2834
2655,2804,2833
2655,2810,2833
2655,2810,2830
2655,2803,2830
2651,2803,2826
2651,2800,2826
2649,2800,2825
2649,2807,2825
2655,2807,2831
2655,2811,2831
2661,2811,2828
2661,2808,2828
2657,2808,2823
2657,2807,2823
2674,2807,2825
2674,2803,2825
2674,2803,2821
2660,2803,2821
2660,2798,2821
2660,2798,2818
2661,2798,2818
2661,2803,2818
2661,2803,2822
2662,2803,2822
2662,2808,2822
2662,2808,2825
2662,2798,2825
2665,2798,2825
2665,2800,2825
2662,2800,2827
2662,2801,2827
2664,2801,2834
2664,2801,2834
2670,2801,2842
2670,2797,2842
2661,2797,2859
2661,2797,2859
2660,2797,2849
2660,2801,2849
2655,2801,2847
2655,2804,2847
2655,2804,2848
2649,2804,2848
2649,2800,2848
2649,2800,2844
2639,2800,2844
2639,2802,2844
2639,2802,2842
2639,2802,2842
2639,2802,2842
2643,2802,2842
2643,2794,2842
2643,2794,2837
2644,2794,2837
2644,2798,2837
2644,2798,2835
2651,2798,2835
2651,2800,2835
2651,2800,2835
2655,2800,2835
2655,2795,2835
2655,2795,2835
2658,2795,2835
2658,2795,2835
2658,2795,2837
2667,2795,2837
2667,2799,2837
2667,2799,2836
2668,2799,2836
2668,2796,2836
2668,2796,2832
2675,2796,2832
2675,2790,2832
2675,2790,2833
2677,2790,2833
2677,2786,2833
2677,2786,2832
2670,2786,2832
2670,2779,2832
2670,2779,2818
2665,2779,2818
2665,2777,2818
2665,2777,2797
2664,2777,2797
2664,2790,2797
2668,2790,2800
2668,2804,2800
2666,2804,2812
2666,2805,2812
2666,2805,2818
2667,2805,2818
2667,2806,2818
2666,2806,2820
2666,2814,2820
2655,2814,2824
2655,2815,2824
2655,2815,2824
2642,2815,2824
2642,2799,2824
2642,2799,2826
2647,2799,2826
2647,2806,2826
2647,2806,2820
2636,2806,2820
2636,2810,2820
2636,2810,2826
2634,2810,2826
2634,2810,2826
2634,2810,2829
2634,2810,2829
2634,2814,2829
2634,2814,2831
2631,2814,2831
2631,2822,2831
2631,2822,2825
2632,2822,2825
2632,2818,2825
2637,2818,2823
2637,2815,2823
2646,2815,2823
2646,2824,2823
2646,2824,2823
2651,2824,2823
2651,2836,2823
2646,2836,2827
2646,2832,2827
2657,2832,2823
2657,2832,2823
2657,2832,2826
2664,2832,2826
2664,2817,2826
2664,2817,2829
2651,2817,2829
2651,2804,2829
2651,2804,2826
2653,2804,2826
2653,2799,2826
2653,2799,2821
2659,2799,2821
2659,2792,2821
2659,2792,2824
2655,2792,2824
2655,2783,2824
2655,2783,2822
2651,2783,2822
2651,2783,2822
2651,2783,2824
2655,2783,2824
2655,2787,2824
2655,2787,2822
2656,2787,2822
2656,2788,2822
2656,2788,2821
2650,2788,2821
2650,2792,2821
2650,2792,2826
2649,2792,2826
2649,2796,2826
2649,2796,2820
2650,2796,2820
2650,2793,2820
2650,2793,2816
2654,2793,2816
2654,2789,2816
2654,2789,2817
2660,2789,2817
2660,2788,2817
2660,2788,2819
2661,2788,2819
2661,2791,2819
2661,2791,2821
2659,2791,2821
2659,2788,2821
2659,2788,2818
2646,2788,2818
2646,2795,2818
2646,2795,2824
2649,2795,2824
2649,2788,2824
2649,2788,2818
2651,2788,2818
2651,2787,2818
2651,2787,2819
2650,2787,2819
2650,2787,2819
2650,2787,2821
2650,2787,2821
2650,2788,2821
2650,2788,2818
2648,2788,2818
2648,2790,2818
2648,2790,2821
2657,2790,2821
2657,2795,2821
2657,2795,2821
2648,2795,2821
2648,2793,2821
2648,2793,2823
2651,2793,2823
2651,2793,2823
2651,2793,2818
2646,2793,2818
2646,2789,2818
2646,2789,2819
2642,2789,2819
2642,2790,2819
2642,2790,2818
2645,2790,2818
2645,2791,2818
2645,2791,2822
2647,2791,2822
2647,2791,2822
2648,2791,2816
2648,2795,2816
2652,2795,2820
2590,2838,2816
2643,2795,2820
2643,2795,2828
2646,2790,2824
2646,2838,2816
2646,2796,2824
2646,2796,2822
2643,2796,2822
2643,2795,2822
2643,2795,2819
2645,2795,2819
2645,2786,2819
2645,2786,2819
2642,2786,2819
2642,2790,2819
2642,2790,2825
2642,2790,2825
2642,2793,2825
2642,2793,2822
2642,2793,2822
2642,2790,2822
2642,2790,2825
2644,2790,2825
2644,2792,2825
2644,2792,2824
2651,2792,2824
2651,2798,2824
2651,2798,2818
2649,2798,2818
2649,2796,2818
2649,2796,2822
2653,2796,2822
2653,2796,2822
2653,2796,2812
2654,2796,2812
2654,2788,2812
2654,2788,2818
2652,2788,2818
2652,2792,2818
2652,2792,2838
2655,2792,2838
2655,2789,2838
2655,2789,2847
2673,2789,2847
2673,2793,2847
2673,2793,2844
2653,2793,2844
2653,2786,2844
2653,2786,2843
2657,2786,2843
2657,2785,2843
2657,2785,2856
2656,2785,2856
2656,2776,2856
2656,2776,2835
2652,2776,2835
2652,2777,2835
2652,2777,2820
2652,2777,2820
2652,2772,2820
2652,2772,2797
2648,2772,2797
2648,2798,2797
2648,2798,2806
2652,2798,2806
2652,2804,2806
2652,2804,2812
2656,2804,2812
2656,2804,2812
2656,2804,2814
2656,2804,2814
2656,2812,2814
2656,2812,2816
2652,2812,2816
2652,2818,2816
2652,2818,2817
2651,2818,2817
2651,2807,2817
2651,2807,2823
2652,2807,2823
2652,2792,2817
2651,2792,2817
2651,2787,2823
2650,2787,2823
2650,2778,2821
2653,2778,2821
2653,2785,2816
2646,2785,2816
2646,2785,2826
2649,2785,2826
2649,2788,2826
2649,2788,2818
2649,2788,2818
2649,2791,2822
2646,2791,2822
2646,2792,2822
2646,2792,2825
2649,2792,2825
2649,2797,2825
2649,2797,2824
2647,2797,2824
2647,2789,2824
2647,2789,2827
2648,2789,2827
2648,2788,2820
2642,2788,2820
2642,2789,2820
2642,2789,2826
2643,2789,2826
2643,2789,2826
2643,2789,2825
2645,2789,2825
2645,2791,2821
2647,2791,2821
2647,2789,2818
2645,2789,2818
2645,2791,2818
2645,2791,2826
2648,2791,2826
2648,2787,2826
2648,2787,2827
2641,2787,2827
2641,2791,2824
2643,2791,2824
2643,2795,2829
2645,2795,2829
2645,2794,2831
2646,2794,2831
2646,2786,2819
2643,2786,2819
2643,2801,2824
2655,2801,2824
2655,2792,2822
2655,2792,2822
2655,2789,2825
2657,2789,2825
2657,2787,2827
2652,2787,2827
2652,2789,2816
2655,2789,2816
2655,2796,2823
2651,2796,2823
2651,2791,2827
2663,2791,2827
2663,2786,2826
2657,2786,2826
2657,2791,2820
2649,2791,2820
2649,2782,2820
2651,2782,2820
2651,2790,2816
2649,2790,2816
2649,2792,2818
2647,2792,2818
2647,2791,2818
2650,2791,2818
2650,2790,2819
2648,2790,2819
2648,2792,2818
2652,2792,2818
2652,2790,2818
2655,2790,2818
2655,2786,2825
2651,2786,2825
2651,2789,2828
2652,2789,2828
2652,2791,2844
2640,2791,2844
2640,2794,2847
2642,2794,2847
2642,2790,2842
2646,2790,2842
2646,2791,2847
2645,2791,2847
2645,2792,2840
2646,2792,2840
2646,2789,2837
2637,2789,2837
2637,2795,2840
2639,2795,2840
2639,2789,2839
2634,2789,2839
2634,2789,2838
2634,2789,2838
2634,2792,2831
2636,2792,2831
2636,2792,2833
2626,2792,2833
2626,2789,2811
2626,2789,2811
2626,2792,2803
2623,2792,2803
2623,2794,2802
2631,2794,2802
2631,2794,2808
2631,2800,2808
2644,2800,2808
2644,2800,2813
2644,2795,2813
2650,2795,2813
2650,2795,2824
2651,2795,2824
2651,2791,2843
2659,2791,2843
2659,2791,2848
2662,2791,2848
2662,2791,2844
2663,2791,2844
2663,2785,2837
2664,2785,2837
2664,2780,2833
2675,2780,2833
2675,2775,2818
2682,2775,2818
2682,2777,2801
2681,2777,2801
2681,2797,2810
2680,2797,2810
2680,2797,2816
2680,2806,2816
2671,2806,2816
2671,2806,2818
2671,2809,2818
2670,2809,2818
2670,2809,2817
2670,2815,2817
2666,2815,2817
2666,2815,2822
2666,2816,2822
2662,2816,2822
2662,2816,2817
2662,2805,2817
2660,2805,2817
2660,2791,2820
2661,2791,2820
2661,2766,2821
2661,2766,2821
2661,2766,2819
2661,2767,2819
2641,2767,2819
2641,2767,2821
2641,2773,2821
2641,2773,2821
2641,2773,2820
2641,2770,2820
2625,2770,2820
2625,2770,2820
2625,2774,2820
2624,2774,2820
2624,2774,2817
2624,2788,2817
2629,2788,2817
2629,2788,2815
2629,2803,2815
2631,2803,2815
2631,2803,2823
2631,2806,2823
2631,2806,2823
2631,2806,2821
2631,2808,2821
2628,2808,2821
2628,2808,2821
2628,2811,2821
2633,2811,2821
2633,2811,2815
2633,2814,2815
2636,2814,2815
2636,2814,2816
2636,2811,2816
2635,2811,2816
2635,2811,2817
2635,2815,2817
2635,2815,2817
2635,2815,2819
2635,2820,2819
2642,2820,2819
2642,2820,2821
2642,2820,2821
2646,2820,2821
2646,2820,2814
2646,2818,2814
2635,2818,2814
2635,2818,2815
2635,2813,2815
2641,2813,2815
2641,2813,2816
2641,2809,2816
2637,2809,2816
2637,2809,2818
2637,2796,2818
2640,2796,2818
2640,2796,2818
2640,2792,2818
2644,2792,2818
2644,2792,2820
2644,2788,2820
2639,2788,2820
2639,2788,2820
2639,2788,2820
2642,2788,2820
2642,2788,2824
2642,2792,2824
2642,2792,2824
2642,2792,2819
2642,2791,2819
2635,2791,2819
2635,2791,2817
2635,2783,2817
2640,2783,2817
2640,2783,2822
2640,2792,2822
2639,2792,2822
2639,2792,2820
2639,2796,2820
2636,2796,2820
2636,2796,2824
2636,2795,2824
2636,2795,2824
2636,2793,2825
2640,2797,2823
2646,2838,2816
2640,2797,2816
2640,2798,2816
2645,2798,2816
2645,2798,2819
2645,2793,2819
2636,2793,2819
2636,2793,2823
2636,2791,2823
2645,2791,2823
2645,2791,2821
2645,2795,2821
2645,2795,2821
2645,2795,2815
2645,2798,2815
2646,2798,2815
2646,2798,2812
2646,2795,2812
2658,2795,2812
2658,2795,2820
2658,2795,2820
2650,2795,2820
2650,2795,2817
2650,2798,2817
2646,2798,2817
2646,2798,2822
2646,2800,2822
2651,2800,2822
2651,2800,2817
2651,2802,2817
2647,2802,2817
2647,2802,2815
2647,2792,2815
2651,2792,2815
2651,2792,2817
2651,2796,2817
2645,2796,2817
2645,2796,2817
2645,2793,2817
2652,2793,2817
2652,2793,2813
2652,2792,2813
2654,2792,2813
2654,2792,2818
2654,2794,2818
2646,2794,2818
2646,2794,2814
2646,2793,2814
2651,2793,2814
2651,2793,2816
2651,2787,2816
2642,2787,2816
2642,2787,2812
2642,2791,2812
2648,2791,2812
2648,2791,2814
2648,2794,2814
2643,2794,2814
2643,2794,2817
2643,2793,2817
2649,2793,2817
2649,2793,2814
2656,2796,2814
2643,2798,2810
2643,2798,2810
2643,2794,2810
2642,2794,2810
2642,2794,2808
2642,2797,2808
2642,2797,2808
2642,2797,2815
2642,2800,2815
2642,2800,2815
2642,2800,2825
2642,2794,2825
2644,2794,2825
2644,2794,2840
2644,2793,2840
2649,2793,2840
2649,2793,2839
2649,2797,2839
2643,2797,2839
2643,2797,2832
2643,2785,2832
2638,2785,2832
2638,2785,2827
2638,2789,2827
2640,2789,2827
2640,2789,2819
2640,2786,2819
2637,2786,2819
2637,2786,2802
2637,2778,2802
2639,2778,2802
2639,2778,2794
2639,2786,2794
2642,2786,2794
2642,2786,2799
2642,2809,2799
2647,2809,2799
2647,2809,2804
2647,2813,2804
2646,2813,2804
2646,2813,2812
2646,2819,2812
2635,2819,2812
2635,2819,2810
2635,2822,2810
2636,2822,2810
2636,2822,2814
2636,2823,2814
2639,2823,2814
2639,2823,2804
2639,2810,2804
2620,2810,2804
2620,2810,2807
2620,2799,2807
2642,2799,2807
2642,2799,2817
2642,2791,2817
2636,2791,2817
2636,2791,2816
2636,2791,2816
2638,2791,2816
2638,2791,2814
2638,2792,2814
2639,2792,2814
2639,2792,2817
2639,2795,2817
2641,2795,2817
2641,2795,2817
2641,2794,2817
2643,2794,2817
2643,2794,2808
2643,2801,2808
2643,2801,2808
2643,2801,2813
2643,2799,2813
2649,2799,2813
2649,2799,2814
2649,2794,2814
2652,2794,2814
2652,2794,2810
2651,2791,2816
2646,2796,2816
2644,2791,2816
2644,2791,2811
2644,2798,2811
2654,2798,2811
2654,2798,2813
2654,2799,2813
2655,2799,2813
2655,2799,2813
2655,2800,2813
2655,2800,2813
2655,2800,2815
2655,2797,2815
2655,2797,2815
2655,2797,2803
2655,2799,2803
2649,2799,2803
2649,2799,2808
2649,2798,2808
2650,2798,2808
2650,2798,2809
2650,2802,2809
2651,2802,2809
2651,2802,2809
2651,2800,2809
2646,2800,2809
2646,2800,2808
2646,2795,2808
2646,2795,2808
2646,2795,2809
2646,2796,2809
2647,2796,2809
2647,2796,2809
2647,2795,2809
2646,2795,2809
2646,2795,2807
2646,2793,2807
2643,2793,2807
2643,2793,2804
2643,2793,2804
2643,2793,2804
2643,2793,2804
2647,2798,2804
2647,2798,2804
2647,2793,2804
2653,2793,2804
2653,2793,2805
2653,2793,2805
2645,2793,2805
2645,2793,2800
2645,2797,2800
2642,2797,2800
2642,2797,2801
2642,2796,2801
2642,2796,2801
2642,2796,2801
2642,2797,2801
2637,2797,2801
2637,2797,2800
2637,2794,2800
2642,2794,2800
2642,2794,2801
2642,2791,2801
2647,2791,2801
2647,2791,2810
2636,2798,2810
2636,2798,2817
2635,2800,2817
2635,2800,2831
2646,2793,2831
2646,2793,2837
2641,2793,2837
2641,2793,2837
2639,2798,2837
2639,2798,2835
2638,2795,2835
2638,2795,2834
2638,2796,2834
2639,2796,2834
2639,2796,2832
2639,2801,2832
2630,2801,2832
2630,2801,2830
2630,2797,2830
2637,2797,2830
2637,2797,2825
2637,2790,2825
2631,2790,2825
2631,2790,2819
2628,2797,2819
2628,2797,2824
2628,2798,2824
2630,2798,2824
2630,2798,2819
2630,2796,2819
2629,2796,2819
2629,2796,2812
2624,2797,2812
2624,2797,2791
2628,2799,2791
2628,2799,2788
2637,2797,2788
2637,2797,2790
2656,2800,2790
2656,2800,2802
2659,2798,2802
2659,2798,2799
2661,2795,2799
2661,2795,2802
2665,2802,2802
2665,2802,2801
2668,2799,2801
2668,2799,2795
2668,2797,2795
2668,2797,2795
2668,2793,2795
2668,2793,2798
2671,2799,2798
2671,2799,2815
2671,2800,2815
2672,2800,2815
2672,2800,2830
2672,2799,2830
2674,2799,2830
2674,2799,2830
2663,2787,2830
2663,2787,2832
2654,2790,2832
2654,2790,2823
2649,2785,2823
2649,2785,2817
2645,2781,2817
2645,2781,2814
2637,2781,2814
2637,2781,2784
2633,2789,2784
2633,2789,2791
2643,2807,2791
2643,2807,2797
2648,2811,2797
2648,2811,2798
2659,2817,2798
2659,2817,2799
2659,2821,2799
2659,2821,2803
2665,2827,2803
2665,2827,2808
2666,2812,2808
2666,2812,2809
2665,2796,2809
2665,2796,2811
2663,2786,2811
2663,2786,2803
2663,2784,2803
2662,2784,2803
2662,2784,2805
2658,2783,2805
2658,2783,2806
2660,2791,2806
2660,2791,2808
2655,2788,2808
2655,2788,2805
2653,2779,2805
2653,2779,2805
2649,2783,2805
2649,2783,2807
2643,2785,2807
2643,2785,2809
2636,2779,2809
2636,2779,2807
2625,2775,2807
2625,2775,2807
2616,2783,2807
2616,2783,2805
2626,2793,2805
2626,2793,2802
2626,2806,2802
2626,2806,2808
2630,2806,2808
2630,2806,2808
2635,2808,2808
2635,2808,2813
2632,2817,2813
2632,2817,2811
2632,2817,2811
2632,2817,2807
2640,2821,2807
2640,2821,2815
2650,2828,2815
2650,2828,2805
2641,2825,2805
2641,2825,2802
2647,2823,2802
2647,2823,2805
2647,2828,2805
2647,2828,2804
2647,2828,2804
2647,2828,2799
2647,2817,2799
2647,2817,2807
2647,2805,2807
2647,2805,2800
2648,2807,2800
2648,2807,2800
2656,2803,2800
2656,2803,2803
2653,2794,2803
2653,2794,2799
2655,2788,2799
2655,2788,2802
2650,2792,2802
2650,2792,2804
2650,2789,2804
2650,2789,2801
2645,2792,2801
2645,2792,2806
2648,2794,2806
2648,2794,2801
2651,2792,2801
2651,2792,2801
2644,2798,2801
2644,2798,2802
2648,2797,2802
2648,2797,2799
2644,2796,2799
2644,2796,2803
2643,2797,2803
2643,2797,2800
2641,2798,2800
2641,2798,2798
2645,2792,2798
2645,2792,2804
2640,2798,2804
2640,2798,2807
2640,2798,2807
2640,2798,2803
2645,2794,2803
2645,2794,2800
2642,2794,2800
2642,2794,2800
2642,2794,2803
2640,2794,2803
2640,2799,2803
2640,2799,2800
2640,2799,2800
2640,2794,2800
2640,2794,2804
2645,2792,2804
2645,2792,2804
2642,2798,2804
2642,2798,2807
2642,2793,2807
2642,2793,2803
2641,2792,2803
2641,2792,2801
2635,2797,2801
2635,2797,2800
2638,2797,2800
2638,2797,2800
2640,2790,2800
2640,2790,2797
2639,2794,2797
2639,2794,2791
2646,2792,2791
2646,2792,2805
2638,2793,2805
2638,2793,2822
2643,2793,2822
2643,2793,2828
2637,2793,2828
2637,2793,2828
2637,2793,2828
2637,2793,2828
2637,2793,2817
2635,2793,2817
2635,2793,2817
2635,2793,2819
2633,2788,2819
2633,2788,2812
2640,2788,2812
2640,2784,2812
2640,2784,2793
2642,2786,2793
2642,2786,2790
2645,2786,2790
2645,2805,2792
2648,2812,2792
2648,2812,2798
2648,2812,2798
2648,2816,2798
2648,2816,2797
2648,2816,2797
2648,2821,2797
2648,2821,2799
2651,2821,2799
2651,2828,2795
2649,2828,2795
2649,2816,2795
2649,2816,2800
2656,2816,2800
2656,2795,2800
2654,2795,2800
2654,2792,2803
2657,2788,2803
2657,2788,2802
2653,2790,2802
2653,2790,2806
2654,2796,2806
2654,2796,2803
2647,2796,2803
2647,2796,2802
2648,2793,2802
2648,2793,2797
2649,2793,2797
2649,2795,2797
2649,2795,2802
2648,2795,2802
2648,2804,2802
2648,2804,2797
2649,2804,2797
2649,2794,2797
2649,2794,2801
2644,2794,2801
2644,2795,2797
2646,2795,2797
2646,2794,2803
2647,2794,2803
2647,2797,2799
2643,2797,2799
2643,2795,2805
2642,2795,2805
2642,2797,2796
2644,2797,2796
2644,2796,2798
2643,2796,2798
2643,2793,2799
2641,2793,2799
2641,2792,2800
2639,2792,2800
2639,2796,2801
2645,2796,2801
2645,2788,2799
2639,2788,2799
2639,2788,2792
2634,2788,2792
2634,2791,2792
2636,2791,2792
2636,2787,2792
2639,2787,2792
2639,2794,2795
2639,2794,2795
2639,2790,2790
2640,2790,2790
2640,2790,2790
2637,2790,2790
2637,2798,2798
2638,2798,2798
2638,2792,2804
2641,2792,2804
2641,2794,2819
2637,2794,2819
2637,2798,2830
2633,2798,2830
2633,2797,2830
2644,2797,2830
2644,2794,2830
2639,2794,2830
2639,2794,2831
2642,2794,2831
2642,2794,2833
2638,2794,2833
2638,2798,2820
2648,2798,2820
2648,2800,2816
2644,2800,2816
2644,2797,2809
2642,2797,2809
2642,2791,2809
2642,2791,2809
2642,2793,2817
2642,2793,2817
2642,2792,2809
2637,2792,2809
2637,2790,2794
2632,2790,2794
2632,2792,2773
2643,2792,2773
2643,2795,2781
2660,2795,2781
2660,2794,2785
2657,2794,2785
2657,2791,2789
2662,2791,2789
2662,2793,2786
2670,2793,2786
2670,2789,2793
2666,2789,2793
2666,2789,2794
2663,2789,2794
2663,2789,2794
2677,2789,2794
2677,2794,2797
2676,2794,2797
2676,2790,2795
2673,2791,2794
2675,2791,2794
2675,2788,2796
2663,2792,2791
2654,2792,2791
2654,2787,2791
2646,2787,2791
2646,2785,2806
2643,2785,2806
2643,2785,2824
2643,2793,2824
2639,2793,2824
2639,2793,2824
2639,2791,2824
2638,2791,2824
2638,2787,2822
2638,2787,2822
2638,2784,2818
2640,2784,2818
2640,2786,2807
2645,2786,2807
2645,2781,2798
2638,2781,2798
2638,2776,2775
2642,2776,2775
2642,2798,2781
2643,2798,2781
2643,2809,2789
2641,2809,2789
2641,2818,2790
2635,2818,2790
2635,2812,2797
2637,2812,2802
2637,2819,2802
2636,2819,2798
2636,2798,2798
2638,2798,2804
2638,2792,2804
2650,2792,2805
2650,2774,2805
2660,2774,2805
2660,2784,2805
2669,2784,2800
2669,2789,2800
2678,2789,2800
2678,2789,2799
2678,2797,2799
2684,2797,2799
2684,2797,2804
2684,2789,2804
2677,2789,2804
2677,2789,2800
2677,2785,2800
2679,2785,2800
2679,2785,2798
2679,2782,2798
2684,2782,2798
2684,2782,2799
2684,2783,2799
2680,2783,2799
2680,2781,2801
2673,2781,2800
2673,2777,2800
2667,2777,2799
2667,2778,2799
2670,2778,2794
2670,2780,2794
2662,2780,2799
2662,2774,2799
2660,2774,2806
2660,2763,2806
2652,2763,2801
2652,2758,2801
2644,2758,2800
2644,2770,2800
2647,2770,2800
2647,2770,2794
2647,2786,2794
2644,2786,2794
2644,2786,2803
2644,2792,2803
2643,2792,2803
2643,2792,2797
2643,2800,2797
2644,2800,2794
2644,2800,2794
2644,2800,2798
2644,2806,2798
2650,2806,2799
2650,2808,2799
2650,2808,2798
2650,2807,2798
2649,2807,2797
2649,2813,2797
2650,2813,2799
2650,2819,2799
2656,2819,2800
2656,2823,2800
2656,2823,2799
2656,2822,2799
2652,2822,2798
2652,2804,2798
2648,2804,2796
2648,2795,2796
2647,2795,2797
2647,2787,2797
2648,2787,2797
2648,2780,2797
2648,2780,2797
2648,2779,2797
2648,2779,2801
2648,2781,2801
2649,2781,2799
2649,2778,2799
2646,2778,2799
2646,2784,2799
2652,2784,2804
2652,2786,2804
2652,2786,2796
2652,2785,2796
2646,2785,2799
2646,2788,2799
2648,2788,2799
2648,2791,2799
2648,2791,2796
2648,2784,2796
2651,2784,2801
2651,2788,2801
2650,2788,2802
2650,2788,2802
2654,2788,2801
2654,2787,2801
2656,2787,2803
2656,2789,2803
2664,2789,2803
2664,2791,2803
2666,2791,2803
2666,2791,2802
2666,2790,2802
2663,2790,2803
2663,2786,2803
2672,2786,2802
2669,2789,2804
2669,2788,2804
2668,2788,2799
2668,2790,2799
2669,2790,2799
2669,2791,2799
2665,2791,2789
2665,2790,2789
2665,2790,2787
2665,2786,2787
2670,2786,2791
2670,2789,2791
2669,2789,2807
2669,2787,2807
2673,2787,2827
2673,2787,2827
2670,2787,2822
2670,2787,2822
2669,2787,2820
2669,2782,2820
2662,2782,2815
2662,2781,2815
2664,2781,2812
2664,2777,2812
2663,2777,2798
2663,2774,2798
2660,2774,2783
2660,2775,2783
2661,2775,2786
2661,2795,2786
2660,2795,2789
2660,2797,2789
2658,2797,2790
2658,2811,2790
2659,2811,2793
2659,2814,2793
2663,2814,2799
2663,2817,2799
2659,2817,2800
2659,2807,2800
2664,2807,2797
2664,2792,2797
2664,2792,2802
2664,2782,2802
2664,2782,2805
2664,2778,2805
2660,2778,2802
2660,2784,2802
2665,2784,2799
2665,2789,2799
2660,2789,2798
2660,2784,2798
2657,2784,2799
2657,2785,2799
2659,2785,2799
2659,2792,2799
2659,2792,2806
2656,2792,2806
2656,2787,2806
2656,2787,2802
2656,2787,2802
2656,2785,2802
2658,2785,2802
2658,2791,2802
2661,2791,2810
2661,2789,2810
2661,2789,2807
2661,2787,2807
2661,2787,2805
2661,2785,2805
2662,2785,2804
2662,2787,2804
2663,2787,2805
2663,2789,2805
2655,2789,2801
2655,2793,2801
2649,2793,2801
2649,2793,2801
2662,2793,2795
2662,2789,2795
2659,2789,2804
2659,2797,2804
2659,2797,2805
2659,2797,2805
2665,2797,2802
2665,2795,2802
2665,2795,2798
2669,2795,2798
2669,2794,2798
2669,2794,2810
2668,2794,2810
2668,2794,2810
2668,2794,2815
2674,2794,2815
2674,2788,2815
2674,2788,2822
2665,2788,2822
2665,2796,2822
2672,2796,2834
2672,2798,2834
2674,2798,2826
2674,2789,2826
2674,2789,2826
2669,2789,2826
2669,2792,2826
2671,2792,2826
2671,2794,2826
2670,2792,2823
2670,2792,2822
2667,2792,2822
2667,2792,2822
2667,2792,2820
2662,2792,2820
2662,2794,2820
2662,2794,2815
2659,2794,2815
2659,2794,2815
2657,2794,2816
2657,2795,2816
2658,2795,2809
2658,2791,2809
2658,2791,2799
2651,2791,2799
2651,2789,2799
2651,2789,2780
2651,2790,2780
2663,2790,2781
2663,2787,2781
2677,2787,2785
2677,2790,2785
2677,2790,2791
2678,2790,2791
2678,2790,2791
2678,2790,2792
2680,2790,2792
2680,2795,2792
2680,2795,2793
2678,2795,2793
2678,2791,2793
2678,2791,2796
2681,2791,2796
2681,2786,2796
2681,2786,2797
2677,2786,2797
2677,2794,2797
2677,2794,2803
2685,2794,2803
2685,2792,2803
2689,2792,2802
2689,2791,2802
2689,2791,2801
2689,2789,2801
2695,2789,2801
2695,2788,2801
2683,2788,2800
2683,2798,2800
2677,2798,2808
2677,2790,2808
2677,2790,2804
2676,2790,2804
2676,2796,2804
2676,2796,2799
2658,2796,2799
2658,2795,2799
2658,2795,2805
2661,2795,2805
2661,2794,2805
2661,2794,2795
2661,2794,2795
2661,2794,2795
2661,2794,2804
2655,2794,2804
2655,2793,2804
2655,2793,2821
2656,2793,2821
2656,2790,2821
2656,2790,2835
2660,2790,2835
2660,2799,2835
2660,2799,2830
2661,2799,2830
2661,2786,2830
2660,2786,2824
2660,2787,2824
2660,2787,2821
2659,2787,2821
2659,2783,2821
2659,2783,2817
2664,2783,2817
2664,2779,2817
2664,2779,2797
2661,2779,2797
2661,2779,2797
2661,2779,2783
2669,2779,2783
2669,2810,2783
2669,2810,2797
2669,2810,2797
2669,2816,2797
2669,2816,2797
2677,2816,2797
2677,2817,2797
2677,2817,2811
2666,2817,2811
2666,2818,2811
2666,2818,2807
2671,2818,2807
2671,2826,2807
2671,2826,2805
2676,2826,2805
2676,2819,2805
2676,2819,2804
2667,2819,2804
2667,2794,2804
2667,2794,2806
2666,2794,2806
2666,2780,2806
2666,2780,2805
2667,2780,2805
2667,2781,2805
2667,2781,2807
2674,2781,2807
2674,2792,2807
2674,2792,2803
2671,2792,2803
2671,2793,2803
2671,2793,2810
2676,2793,2810
2676,2792,2810
2676,2792,2799
2688,2792,2799
2688,2791,2799
2688,2791,2804
2697,2791,2804
2697,2795,2804
2697,2795,2809
2696,2795,2809
2696,2797,2809
2696,2797,2809
2697,2797,2809
2697,2795,2809
2697,2795,2806
2695,2795,2806
2695,2795,2806
2695,2795,2805
2693,2795,2805
2693,2786,2805
2693,2786,2803
2683,2786,2803
2683,2789,2803
2683,2789,2809
2688,2789,2809
2688,2784,2809
2688,2784,2803
2684,2784,2803
2684,2785,2803
2684,2785,2804
2680,2785,2804
2680,2785,2804
2680,2785,2808
2682,2785,2808
2682,2782,2808
2682,2782,2807
2683,2782,2807
2683,2774,2807
2683,2774,2804
2663,2774,2804
2663,2773,2804
2663,2773,2810
2649,2773,2810
2649,2785,2810
2649,2785,2809
2651,2785,2809
2651,2794,2809
2651,2794,2809
2658,2794,2809
2658,2804,2809
2658,2804,2807
2654,2804,2807
2654,2806,2807
2654,2806,2807
2660,2806,2807
2660,2811,2807
2660,2811,2813
2662,2811,2813
2662,2810,2813
2662,2810,2808
2663,2810,2808
2663,2816,2808
2663,2816,2809
2665,2816,2809
2665,2822,2809
2665,2822,2807
2667,2822,2807
2667,2820,2807
2667,2820,2813
2664,2820,2813
2664,2826,2813
2664,2826,2814
2668,2826,2814
2668,2826,2814
2668,2826,2814
2668,2826,2814
2668,2825,2814
2668,2825,2811
2672,2825,2811
2672,2820,2811
2672,2820,2813
2668,2820,2813
2668,2809,2813
2668,2809,2810
2667,2809,2810
2667,2799,2810
2667,2799,2811
2670,2799,2811
2670,2795,2811
2670,2795,2806
2683,2795,2806
2683,2795,2806
2683,2795,2813
2674,2795,2813
2674,2787,2813
2674,2787,2813
2677,2787,2813
2677,2785,2813
2677,2785,2814
2679,2785,2814
2679,2789,2814
2679,2789,2806
2683,2789,2806
2683,2791,2806
2683,2791,2813
2685,2791,2813
2685,2793,2813
2685,2793,2809
2678,2793,2809
2678,2800,2809
2678,2800,2808
2680,2800,2808
2680,2793,2808
2680,2793,2812
2682,2793,2812
2682,2792,2812
2682,2792,2812
2679,2792,2812
2679,2799,2812
2679,2799,2812
2686,2799,2812
2686,2794,2812
2686,2794,2811
2680,2794,2811
2680,2793,2811
2680,2793,2808
2683,2793,2808
2683,2797,2808
2683,2797,2809
2676,2797,2809
2676,2796,2809
2676,2796,2813
2685,2796,2813
2685,2794,2813
2685,2794,2808
2678,2794,2808
2678,2798,2808
2678,2798,2812
2678,2798,2812
2678,2799,2812
2678,2799,2805
2681,2799,2805
2681,2796,2805
2681,2796,2802
2679,2796,2802
2679,2792,2802
2679,2792,2804
2675,2792,2804
2675,2792,2804
2675,2792,2823
2677,2792,2823
2677,2796,2823
2677,2796,2840
2680,2796,2840
2680,2796,2840
2680,2796,2835
2676,2796,2835
2676,2794,2835
2676,2794,2822
2681,2794,2822
2681,2792,2822
2681,2792,2819
2677,2792,2819
2677,2781,2819
2677,2781,2819
2673,2781,2819
2673,2781,2819
2673,2781,2803
2672,2781,2803
2672,2774,2803
2672,2774,2790
2675,2774,2790
2675,2804,2790
2675,2804,2800
2680,2804,2800
2680,2812,2800
2680,2812,2805
2669,2812,2805
2669,2816,2805
2669,2816,2804
2673,2816,2804
2673,2817,2804
2673,2817,2807
2673,2817,2807
2673,2823,2807
2673,2823,2815
2671,2823,2815
2671,2816,2815
2671,2816,2811
2671,2816,2811
2671,2795,2811
2671,2795,2811
2679,2795,2811
2679,2792,2811
2679,2792,2813
2671,2792,2813
2671,2793,2815
2669,2793,2815
2669,2795,2817
2670,2795,2817
2670,2801,2814
2667,2801,2814
2667,2793,2814
2675,2793,2814
2675,2800,2814
2675,2800,2822
2676,2800,2822
2676,2798,2814
2674,2798,2814
2674,2798,2815
2676,2798,2815
2676,2800,2816
2683,2800,2816
2683,2792,2813
2685,2792,2813
2685,2800,2812
2683,2800,2812
2683,2797,2811
2679,2797,2811
2679,2798,2805
2685,2798,2805
2685,2795,2805
2685,2795,2807
2686,2795,2807
2686,2801,2807
2686,2801,2806
2686,2801,2806
2686,2792,2806
2686,2792,2804
2686,2792,2804
2686,2793,2805
2685,2793,2805
2685,2795,2804
2689,2795,2804
2689,2793,2806
2690,2793,2806
2690,2791,2818
2691,2791,2818
2691,2794,2823
2689,2794,2823
2689,2798,2840
2683,2798,2840
2683,2790,2836
2689,2790,2836
2689,2790,2836
2688,2790,2836
2688,2792,2833
2683,2792,2833
2683,2791,2839
2681,2791,2839
2681,2789,2826
2678,2789,2826
2678,2797,2823
2681,2797,2823
2681,2789,2825
2679,2789,2825
2679,2789,2825
2679,2789,2825
2667,2789,2825
2667,2794,2819
2668,2794,2819
2668,2790,2807
2662,2790,2807
2662,2793,2799
2662,2793,2799
2662,2788,2795
2674,2788,2795
2674,2791,2800
2684,2791,2800
2684,2792,2805
2686,2792,2805
2686,2793,2813
2687,2793,2813
2687,2788,2805
2691,2788,2805
2691,2789,2811
2692,2789,2811
2692,2792,2811
2693,2792,2811
2693,2795,2813
2697,2795,2813
2697,2795,2816
2699,2795,2816
2699,2793,2820
2698,2793,2820
2698,2792,2815
2697,2792,2815
2697,2798,2818
2690,2798,2818
2690,2794,2817
2683,2794,2817
2683,2794,2818
2683,2791,2818
2673,2791,2818
2673,2797,2819
2675,2797,2819
2675,2792,2822
2673,2792,2822
2673,2794,2822
2676,2794,2822
2676,2797,2819
2683,2797,2819
2683,2794,2815
2688,2794,2815
2688,2792,2808
2693,2792,2808
2693,2792,2815
2693,2792,2815
2693,2793,2834
2690,2793,2834
2690,2793,2849
2690,2794,2849
2680,2794,2849
2680,2792,2845
2686,2792,2845
2686,2792,2836
2691,2792,2836
2691,2784,2834
2692,2784,2834
2692,2780,2831
2688,2780,2831
2688,2775,2809
2690,2775,2809
2690,2775,2799
2690,2791,2799
2687,2791,2799
2687,2803,2800
2686,2803,2800
2686,2806,2809
2685,2806,2809
2685,2808,2811
2686,2808,2811
2686,2808,2809
2686,2819,2809
2687,2819,2809
2687,2819,2813
2687,2815,2813
2686,2815,2813
2686,2815,2815
2686,2807,2815
2688,2807,2815
2688,2807,2812
2688,2791,2812
2684,2791,2812
2684,2791,2817
2684,2783,2817
2682,2783,2817
2682,2783,2814
2682,2790,2814
2681,2790,2814
2681,2790,2814
2681,2784,2814
2680,2784,2814
2680,2784,2819
2680,2785,2819
2682,2785,2819
2682,2785,2820
2682,2790,2820
2676,2790,2820
2676,2790,2823
2676,2792,2823
2682,2792,2823
2682,2792,2815
2682,2793,2815
2684,2793,2815
2684,2793,2821
2684,2791,2821
2686,2791,2821
2686,2791,2822
2686,2783,2822
2689,2783,2822
2689,2783,2812
2689,2788,2812
2707,2788,2812
2707,2788,2810
2707,2793,2810
2706,2793,2810
2706,2793,2817
2706,2793,2817
2699,2793,2817
2699,2793,2817
2699,2786,2817
2706,2786,2817
2706,2786,2818
2706,2788,2818
2702,2788,2818
2702,2788,2819
2702,2785,2819
2698,2785,2819
2698,2785,2814
2698,2792,2814
2700,2792,2814
2700,2792,2824
2700,2786,2824
2699,2786,2824
2699,2782,2820
2699,2782,2820
2699,2782,2816
2699,2786,2816
2692,2786,2816
2692,2786,2819
2692,2783,2819
2695,2783,2819
2695,2783,2822
2695,2779,2822
2692,2779,2822
2692,2779,2822
2692,2771,2822
2692,2771,2822
2692,2771,2818
2692,2772,2818
2680,2772,2818
2680,2772,2816
2680,2777,2816
2675,2777,2816
2675,2777,2823
2675,2789,2823
2679,2789,2823
2679,2789,2821
2679,2797,2821
2680,2797,2821
2680,2797,2815
2680,2805,2815
2677,2805,2815
2677,2805,2816
2677,2807,2816
2682,2807,2816
2682,2807,2818
2682,2808,2818
2682,2808,2818
2682,2808,2814
2682,2804,2814
2690,2804,2814
2690,2804,2815
2690,2816,2815
2688,2816,2815
2688,2816,2816
2688,2815,2816
2693,2815,2816
2693,2815,2819
2693,2819,2819
2690,2819,2819
2690,2819,2821
2690,2817,2821
2691,2817,2821
2691,2817,2816
2691,2814,2816
2691,2814,2816
2691,2814,2816
2691,2815,2816
2690,2815,2816
2690,2815,2820
2690,2805,2820
2693,2805,2820
2693,2805,2820
2693,2798,2820
2688,2798,2820
2688,2798,2817
2688,2787,2817
2694,2787,2817
2694,2787,2819
2694,2782,2819
2687,2782,2819
2687,2782,2817
2687,2782,2817
2690,2782,2817
2690,2782,2814
2690,2773,2814
2682,2773,2814
2682,2773,2821
2682,2774,2821
2691,2774,2821
2691,2774,2818
2691,2782,2818
2687,2782,2818
2687,2782,2817
2687,2785,2817
2688,2785,2817
2688,2785,2817
2688,2780,2817
2687,2780,2817
2687,2780,2822
2687,2791,2822
2687,2791,2822
2687,2791,2817
2687,2791,2817
2678,2791,2817
2678,2791,2815
2678,2790,2815
2691,2790,2815
2691,2790,2822
2691,2787,2822
2690,2787,2822
2690,2787,2822
2690,2785,2822
2695,2785,2822
2695,2785,2821
2695,2791,2821
2684,2791,2821
2684,2791,2811
2684,2786,2811
2684,2786,2811
2684,2786,2815
2684,2788,2815
2684,2788,2815
2684,2788,2827
2684,2784,2827
2686,2784,2827
2686,2784,2845
2686,2792,2845
2686,2792,2845
2686,2792,2851
2686,2791,2851
2693,2791,2851
2693,2791,2841
2693,2787,2841
2697,2787,2841
2697,2787,2839
2697,2783,2839
2696,2783,2839
2696,2783,2831
2696,2779,2831
2696,2779,2831
2696,2779,2820
2696,2766,2820
2701,2766,2820
2701,2766,2805
2701,2773,2805
2702,2773,2805
2702,2773,2807
2702,2791,2807
2701,2791,2807
2701,2791,2813
2701,2800,2813
2705,2800,2813
2705,2800,2815
2705,2805,2815
2699,2805,2815
2699,2805,2811
2699,2808,2811
2702,2808,2811
2702,2808,2823
2702,2812,2823
2699,2812,2823
2699,2812,2818
2699,2804,2818
2703,2804,2818
2703,2804,2818
2703,2783,2818
2698,2783,2818
2698,2783,2809
2698,2775,2809
2698,2775,2809
2698,2775,2820
2698,2782,2820
2696,2782,2820
2696,2782,2824
2707,2779,2824
2707,2782,2824
2699,2782,2824
2699,2782,2823
2699,2786,2823
2704,2786,2823
2704,2786,2820
2704,2787,2820
2701,2787,2820
2701,2787,2821
2701,2782,2821
2698,2782,2821
2698,2782,2820
2698,2778,2820
2696,2778,2820
2696,2778,2822
2696,2785,2822
2698,2785,2822
2698,2785,2814
2698,2785,2814
2695,2785,2814
2695,2785,2816
2695,2779,2816
2693,2779,2816
2693,2779,2811
2693,2782,2811
2697,2782,2811
2697,2782,2811
2697,2783,2811
2693,2783,2811
2693,2783,2821
2693,2782,2821
2689,2782,2821
2689,2782,2822
2689,2786,2822
2698,2786,2822
2698,2786,2833
2698,2792,2833
2695,2792,2833
2695,2792,2845
2695,2781,2845
2690,2781,2845
2690,2781,2846
2690,2783,2846
2691,2783,2846
2691,2783,2845
2691,2784,2845
2694,2784,2845
2694,2784,2846
2694,2786,2846
2688,2786,2846
2688,2786,2839
2688,2785,2839
2692,2785,2839
2692,2785,2840
2692,2780,2840
2690,2780,2840
2690,2780,2836
2690,2790,2836
2683,2790,2836
2683,2790,2835
2683,2791,2835
2688,2791,2835
2688,2791,2837
2688,2788,2837
2686,2788,2837
2686,2788,2830
2686,2792,2830
2680,2792,2830
2680,2792,2824
2680,2791,2824
2683,2791,2824
2683,2791,2815
2683,2787,2815
2676,2787,2815
2676,2787,2801
2676,2787,2801
2685,2787,2801
2685,2787,2804
2699,2790,2804
2699,2790,2818
2704,2791,2818
2704,2791,2816
2704,2790,2816
2709,2790,2816
2709,2790,2815
2709,2791,2815
2720,2791,2815
2720,2791,2816
2720,2788,2816
2717,2788,2816
2717,2788,2816
2717,2787,2816
2725,2787,2816
2725,2787,2819
2725,2785,2819
2726,2785,2819
2726,2785,2823
2726,2788,2823
2728,2788,2823
2728,2788,2818
2728,2791,2818
2735,2791,2818
2735,2791,2823
2729,2784,2823
2729,2784,2823
2729,2784,2823
2726,2784,2823
2726,2784,2821
2726,2785,2821
2715,2785,2821
2715,2785,2820
2710,2787,2820
2710,2787,2823
2704,2786,2823
2704,2786,2821
2700,2785,2821
2700,2785,2822
2701,2786,2822
2701,2786,2818
2699,2780,2818
2699,2780,2821
2700,2785,2821
2700,2785,2821
2706,2782,2821
2706,2782,2817
2698,2787,2817
2698,2787,2816
2698,2788,2816
2706,2788,2816
2706,2788,2821
2706,2781,2821
2705,2781,2821
2705,2781,2817
2705,2784,2817
2704,2784,2817
2700,2788,2809
2700,2788,2813
2700,2791,2813
2699,2791,2813
2699,2791,2831
2699,2786,2831
2706,2786,2831
2706,2786,2844
2706,2791,2844
2699,2791,2844
2699,2791,2848
2706,2784,2848
2706,2784,2844
2697,2781,2844
2697,2781,2839
2704,2776,2839
2704,2776,2832
2706,2777,2832
2706,2777,2821
2703,2778,2821
2703,2778,2796
2707,2785,2796
2707,2785,2798
2703,2800,2798
2703,2800,2810
2699,2803,2810
2699,2803,2812
2703,2804,2812
2703,2804,2816
2699,2816,2816
2699,2816,2817
2702,2823,2817
2702,2823,2822
2707,2804,2822
2707,2804,2824
2705,2793,2824
2705,2793,2819
2702,2787,2819
2702,2787,2821
2705,2788,2821
2705,2788,2822
2701,2789,2822
2701,2789,2822
2699,2792,2822
2699,2792,2827
2700,2794,2827
2700,2794,2825
2702,2796,2825
2702,2796,2826
2706,2793,2826
2706,2793,2822
2710,2798,2822
2710,2798,2829
2709,2797,2829
2709,2797,2821
2709,2799,2821
2709,2799,2821
2708,2800,2821
2708,2800,2826
2706,2795,2826
2706,2795,2824
2724,2794,2824
2724,2794,2820
2719,2798,2820
2719,2798,2822
2731,2791,2822
2731,2791,2825
2738,2785,2825
2738,2785,2822
2747,2798,2822
2747,2798,2825
2741,2793,2825
2741,2793,2820
2740,2793,2820
2740,2793,2820
2745,2792,2820
2745,2792,2819
2735,2786,2819
2735,2786,2824
2738,2788,2824
2738,2788,2824
2734,2784,2824
2734,2784,2825
2730,2782,2825
2730,2782,2823
2729,2782,2823
2729,2782,2819
2724,2777,2819
2724,2777,2823
2719,2778,2823
2719,2778,2823
2702,2774,2823
2702,2774,2819
2697,2778,2819
2697,2778,2814
2701,2796,2814
2701,2796,2819
2701,2801,2819
2708,2801,2819
2708,2801,2815
2705,2806,2815
2705,2806,2822
2709,2806,2822
2709,2806,2826
2712,2808,2826
2712,2808,2826
2708,2809,2826
2708,2809,2826
2715,2810,2826
2715,2810,2822
2708,2817,2822
2708,2817,2818
2710,2820,2818
2710,2820,2816
2712,2818,2816
2712,2818,2823
2715,2822,2823
2715,2822,2828
2711,2822,2828
2711,2822,2828
2711,2822,2821
2708,2811,2821
2708,2811,2822
2711,2805,2822
2711,2805,2825
2715,2805,2825
2715,2798,2825
2715,2798,2824
2714,2792,2824
2714,2792,2825
2704,2789,2825
2706,2789,2825
2706,2777,2825
2706,2777,2828
2717,2789,2828
2717,2789,2826
2720,2795,2826
2720,2795,2827
2717,2793,2827
2717,2793,2824
2726,2796,2824
2726,2796,2811
2731,2797,2811
2731,2797,2818
2727,2800,2818
2727,2800,2812
2729,2795,2812
2729,2795,2823
2724,2804,2823
2724,2804,2844
2725,2797,2844
2725,2797,2846
2726,2798,2846
2726,2798,2844
2721,2798,2844
2721,2801,2844
2721,2801,2838
2724,2785,2838
2724,2785,2835
2723,2785,2835
2723,2789,2835
2723,2789,2824
2725,2789,2824
2725,2780,2824
2725,2780,2810
2725,2784,2810
2725,2784,2806
2723,2805,2806
2723,2805,2815
2723,2808,2815
2723,2808,2811
2723,2815,2811
2723,2815,2820
2724,2823,2820
2724,2823,2817
2722,2824,2817
2722,2824,2823
2720,2804,2823
2720,2804,2822
2726,2789,2822
2726,2789,2824
2722,2787,2824
2722,2787,2826
2722,2791,2826
2722,2791,2819
2716,2791,2819
2716,2791,2820
2714,2795,2820
2714,2795,2817
2719,2795,2817
2719,2799,2817
2719,2799,2816
2717,2799,2816
2717,2797,2816
2717,2797,2816
2720,2797,2816
2720,2801,2823
2720,2801,2823
2720,2798,2830
2722,2798,2830
2722,2800,2837
2716,2800,2837
2716,2792,2851
2720,2792,2851
2720,2795,2854
2719,2795,2854
2719,2799,2856
2719,2799,2856
2719,2794,2857
2717,2797,2857
2717,2797,2852
2720,2800,2852
2720,2800,2843
2728,2801,2843
2728,2801,2840
2730,2801,2840
2730,2801,2841
2727,2801,2841
2727,2802,2840
2720,2802,2840
2720,2798,2839
2719,2796,2839
2719,2796,2825
2715,2800,2825
2715,2800,2806
2715,2796,2806
2715,2796,2805
2729,2796,2805
2729,2800,2812
2742,2800,2812
2742,2797,2818
2747,2797,2818
2747,2799,2822
2747,2799,2822
2747,2795,2822
2749,2795,2822
2749,2803,2821
2748,2796,2821
2748,2796,2823
2747,2796,2823
2747,2798,2827
2749,2798,2827
2749,2797,2825
2747,2797,2825
2747,2800,2824
2747,2800,2824
2747,2800,2826
2739,2800,2826
2739,2800,2825
2735,2800,2825
2735,2799,2827
2728,2799,2827
2728,2798,2832
2715,2798,2832
2715,2794,2825
2725,2794,2825
2725,2796,2828
2730,2796,2828
2730,2791,2827
2729,2791,2827
2729,2801,2826
2723,2801,2826
2723,2802,2828
2721,2802,2828
2721,2797,2826
2724,2797,2826
2724,2796,2828
2725,2796,2828
2725,2805,2831
2726,2805,2831
2726,2805,2827
2727,2805,2827
2727,2803,2830
2725,2803,2830
2725,2804,2830
2721,2804,2830
2721,2803,2829
2723,2803,2829
2723,2804,2829
2720,2804,2829
2720,2803,2831
2719,2803,2831
2719,2802,2828
2724,2802,2828
2724,2800,2824
2732,2800,2824
2732,2800,2818
2739,2800,2818
2739,2802,2820
2735,2802,2820
2735,2802,2838
2732,2802,2838
2732,2803,2856
2732,2803,2856
2732,2800,2858
2732,2800,2858
2732,2798,2852
2739,2798,2852
2739,2791,2845
2745,2791,2845
2745,2792,2842
2736,2792,2842
2736,2785,2834
2735,2785,2834
2735,2781,2809
2734,2781,2809
2734,2800,2815
2733,2800,2815
2733,2809,2816
2734,2809,2821
2734,2815,2821
2731,2815,2827
2731,2823,2827
2731,2823,2823
2731,2822,2823
2733,2822,2824
2733,2820,2824
2732,2820,2824
2732,2800,2826
2732,2800,2830
2732,2790,2830
2734,2790,2821
2734,2780,2821
2730,2780,2826
2730,2795,2826
2730,2795,2830
2730,2794,2830
2733,2794,2830
2733,2798,2830
2734,2798,2829
2734,2790,2829
2730,2790,2825
2730,2789,2825
2732,2789,2825
2732,2793,2825
2727,2793,2830
2727,2790,2830
2726,2790,2828
2726,2799,2828
2728,2799,2828
2728,2793,2828
2726,2793,2836
2726,2791,2836
2724,2791,2830
2724,2797,2830
2725,2797,2827
2725,2797,2827
2721,2797,2834
2721,2794,2834
2723,2794,2834
2723,2788,2834
2724,2788,2825
2724,2795,2825
2718,2795,2833
2718,2796,2833
2713,2796,2829
2713,2795,2829
2715,2795,2833
2715,2792,2833
2712,2792,2830
2712,2797,2830
2716,2797,2828
2716,2792,2828
2716,2792,2832
2716,2805,2832
2719,2805,2831
2719,2803,2831
2728,2803,2837
2728,2801,2837
2736,2801,2829
2736,2809,2829
2750,2809,2833
2750,2799,2833
2758,2799,2833
2758,2797,2833
2755,2797,2831
2755,2803,2831
2756,2803,2826
2756,2800,2826
2756,2800,2830
2756,2798,2830
2749,2798,2833
2749,2792,2833
2749,2792,2831
2749,2793,2831
2750,2793,2829
2750,2794,2829
2746,2794,2829
2746,2790,2829
2744,2790,2829
2744,2783,2829
2742,2783,2828
2742,2781,2828
2738,2781,2828
2738,2776,2828
2730,2776,2831
2730,2774,2831
2712,2774,2828
2712,2772,2828
2711,2772,2830
2711,2787,2830
2718,2787,2830
2718,2802,2830
2718,2802,2829
2718,2802,2829
2715,2802,2831
2715,2801,2831
2720,2801,2830
2720,2804,2830
2722,2804,2826
2722,2806,2826
2723,2806,2825
2723,2811,2825
2724,2811,2825
2724,2816,2825
2726,2816,2831
2726,2813,2831
2728,2813,2831
2728,2811,2831
2728,2811,2829
2720,2811,2829
2720,2820,2829
2729,2820,2826
2729,2822,2826
2715,2822,2809
2715,2816,2809
2722,2816,2820
2722,2808,2820
2725,2808,2831
2725,2802,2831
2721,2802,2851
2721,2793,2851
2721,2793,2850
2721,2787,2850
2725,2787,2842
2725,2786,2842
2721,2786,2845
2721,2779,2845
2721,2779,2844
2721,2770,2844
2721,2770,2831
2721,2765,2831
2720,2765,2806
2720,2771,2806
2722,2771,2815
2722,2800,2815
2724,2800,2812
2724,2809,2812
2715,2809,2821
2715,2812,2821
2723,2812,2831
2723,2814,2831
2714,2814,2837
2714,2819,2837
2714,2819,2852
2719,2819,2852
2719,2804,2852
2719,2804,2851
2721,2804,2851
2721,2793,2851
2721,2793,2858
2720,2793,2858
2720,2780,2858
2719,2780,2856
2719,2786,2856
2730,2786,2855
2730,2788,2855
2731,2788,2852
2731,2792,2852
2730,2792,2850
2730,2791,2850
2730,2791,2844
2731,2791,2844
2731,2788,2844
2727,2788,2844
2727,2787,2844
2723,2787,2847
2723,2789,2847
2719,2789,2838
2719,2787,2838
2714,2787,2825
2714,2787,2825
2714,2787,2818
2716,2787,2818
2716,2785,2818
2729,2785,2814
2729,2786,2814
2739,2786,2817
2739,2790,2817
2743,2790,2814
2743,2785,2814
2746,2785,2818
2746,2784,2818
2748,2784,2821
2748,2785,2821
2748,2785,2825
2748,2787,2825
2750,2787,2825
2750,2789,2825
2750,2789,2825
2756,2789,2825
2756,2787,2825
2756,2787,2827
2758,2787,2827
2758,2780,2827
2757,2780,2828
2757,2784,2828
2757,2784,2826
2745,2784,2826
2745,2786,2826
2745,2786,2823
2738,2786,2823
2738,2788,2823
2728,2788,2824
2728,2790,2824
2723,2790,2834
2723,2784,2834
2723,2784,2831
2721,2784,2831
2721,2790,2831
2721,2790,2827
2718,2790,2827
2718,2786,2827
2718,2786,2837
2720,2786,2837
2720,2788,2837
2720,2788,2823
2725,2788,2823
2725,2789,2823
2725,2789,2830
2725,2789,2830
2725,2784,2830
2725,2784,2831
2728,2784,2831
2728,2782,2831
2726,2782,2825
2726,2782,2825
2726,2782,2825
2726,2782,2825
2726,2789,2825
2726,2789,2830
2727,2789,2830
2727,2791,2830
2727,2791,2829
2730,2791,2829
2730,2787,2829
2730,2787,2827
2722,2787,2827
2722,2791,2827
2722,2791,2824
2723,2791,2824
2723,2791,2824
2723,2791,2832
2730,2791,2832
2730,2788,2832
2730,2788,2827
2726,2788,2827
2726,2786,2827
2726,2786,2829
2725,2786,2829
2725,2783,2829
2725,2783,2829
2729,2783,2829
2729,2791,2829
2729,2791,2829
2721,2791,2829
2721,2787,2829
2721,2787,2836
2734,2787,2836
2734,2788,2836
2734,2788,2834
2735,2788,2834
2735,2791,2834
2735,2791,2831
2737,2791,2831
2737,2795,2831
2737,2795,2827
2740,2795,2827
2740,2789,2827
2740,2789,2826
2736,2789,2826
2736,2785,2826
2736,2785,2829
2743,2785,2829
2743,2790,2829
2743,2790,2826
2733,2790,2826
2733,2793,2826
2733,2793,2828
2736,2793,2828
2736,2791,2828
2736,2791,2830
2736,2791,2830
2736,2785,2830
2736,2785,2823
2741,2785,2823
2741,2784,2823
2741,2784,2824
2731,2784,2824
2731,2783,2824
2731,2783,2825
2735,2783,2825
2735,2785,2825
2735,2785,2837
2736,2785,2837
2736,2783,2837
2736,2783,2852
2735,2783,2852
2735,2784,2852
2735,2784,2855
2741,2784,2855
2741,2789,2855
2741,2789,2849
2740,2789,2849
2740,2781,2849
2740,2781,2847
2739,2781,2847
2739,2779,2847
2739,2779,2838
2739,2779,2838
2739,2775,2838
2739,2775,2833
2731,2775,2833
2731,2762,2833
2731,2762,2811
2739,2762,2811
2739,2776,2811
2739,2776,2817
2733,2776,2817
2733,2789,2817
2733,2789,2817
2736,2789,2817
2736,2808,2817
2736,2808,2821
2733,2808,2821
2733,2801,2821
2733,2801,2822
2739,2801,2822
2739,2814,2822
2739,2814,2826
2726,2814,2826
2726,2816,2826
2726,2816,2827
2731,2816,2827
2731,2801,2827
2731,2801,2829
2733,2801,2829
2733,2791,2829
2733,2791,2832
2727,2791,2832
2727,2775,2832
2727,2775,2834
2730,2775,2834
2730,2778,2834
2730,2778,2829
2732,2778,2829
2732,2784,2829
2732,2784,2834
2732,2784,2834
2732,2786,2834
2732,2786,2831
2728,2786,2831
2728,2790,2831
2728,2790,2830
2733,2790,2830
2733,2787,2830
2733,2787,2832
2724,2787,2832
2724,2789,2832
2724,2789,2829
2731,2789,2829
2731,2789,2829
2731,2789,2829
2726,2789,2829
2726,2786,2829
2726,2786,2839
2730,2786,2839
2730,2793,2839
2730,2793,2830
2728,2793,2830
2728,2792,2830
2728,2792,2829
2738,2792,2829
2738,2788,2829
2738,2788,2836
2740,2788,2836
2740,2785,2836
2740,2785,2834
2742,2785,2834
2742,2786,2834
2742,2786,2832
2735,2786,2832
2735,2792,2832
2735,2792,2833
2742,2792,2833
2742,2787,2833
2742,2787,2830
2738,2787,2830
2738,2788,2830
2738,2788,2832
2744,2788,2832
2744,2788,2832
2744,2788,2828
2743,2788,2828
2743,2787,2828
2743,2787,2834
2742,2787,2834
2742,2790,2834
2742,2790,2831
2749,2790,2831
2749,2792,2831
2749,2792,2829
2739,2792,2829
2739,2790,2829
2739,2790,2832
2751,2790,2832
2751,2790,2832
2751,2790,2830
2742,2790,2830
2742,2791,2830
2742,2791,2829
2743,2791,2829
2743,2788,2829
2743,2788,2826
2739,2788,2826
2739,2789,2826
2739,2789,2831
2743,2789,2831
2743,2789,2831
2743,2789,2835
2740,2789,2835
2740,2786,2835
2740,2786,2828
2743,2786,2828
2743,2788,2828
2743,2788,2829
2735,2788,2829
2735,2791,2829
2735,2791,2830
2732,2791,2830
2732,2785,2830
2732,2785,2827
2729,2785,2827
2729,2792,2827
2729,2792,2833
2727,2792,2833
2727,2785,2833
2727,2785,2831
2728,2785,2831
2728,2790,2831
2728,2790,2830
2733,2790,2830
2733,2787,2830
2733,2787,2832
2732,2787,2832
2732,2787,2832
2732,2787,2834
2737,2787,2834
2737,2789,2834
2737,2789,2830
2756,2789,2830
2756,2790,2830
2756,2790,2835
2757,2790,2835
2757,2787,2835
2757,2787,2827
2757,2787,2827
2757,2788,2827
2757,2788,2828
2758,2788,2828
2758,2788,2828
2758,2788,2831
2762,2788,2831
2762,2794,2831
2762,2794,2831
2759,2794,2831
2759,2789,2831
2759,2789,2834
2752,2789,2834
2752,2788,2834
2752,2788,2836
2753,2788,2836
2753,2786,2836
2753,2786,2837
2751,2786,2837
2751,2782,2837
2751,2782,2834
2744,2782,2834
2744,2780,2834
2744,2780,2830
2742,2780,2830
2742,2783,2830
2742,2783,2829
2740,2783,2829
2740,2781,2829
2740,2781,2829
2735,2781,2829
2735,2782,2829
2735,2782,2822
2726,2782,2822
2726,2770,2822
2726,2770,2818
2721,2770,2818
2721,2776,2818
2721,2776,2831
2726,2776,2831
2726,2792,2831
2726,2792,2853
2731,2792,2853
2731,2798,2853
2731,2798,2863
2729,2798,2863
2729,2801,2863
2729,2801,2869
2735,2801,2869
2735,2811,2869
2735,2811,2871
2735,2811,2871
2735,2801,2871
2735,2801,2859
2744,2801,2859
2744,2799,2859
2744,2799,2856
2740,2799,2856
2740,2802,2856
2740,2802,2847
2738,2802,2847
2738,2802,2847
2738,2802,2842
2743,2802,2842
2743,2820,2842
2743,2820,2838
2736,2820,2838
2736,2826,2838
2736,2826,2841
2739,2826,2841
2739,2829,2841
2739,2829,2835
2733,2829,2835
2733,2827,2835
2738,2827,2843
2738,2822,2837
2730,2822,2837
2725,2811,2816
2646,2789,2816
2725,2811,2815
2732,2811,2815
2732,2781,2814
2746,2781,2814
2746,2784,2818
2755,2784,2818
2755,2783,2821
2756,2783,2821
2756,2782,2822
2748,2782,2822
2748,2784,2822
2748,2784,2826
2752,2784,2826
2752,2784,2827
2758,2784,2827
2758,2785,2831
2759,2785,2831
2759,2789,2828
2758,2789,2828
2758,2790,2828
2758,2790,2827
2768,2790,2827
2768,2791,2827
2768,2791,2828
2763,2791,2828
2763,2792,2828
2763,2792,2828
2750,2792,2828
2750,2789,2828
2750,2789,2829
2734,2789,2829
2734,2791,2830
2734,2791,2830
2734,2793,2830
2734,2793,2831
2730,2793,2831
2730,2795,2831
2730,2795,2844
2728,2795,2844
2728,2793,2840
2728,2793,2840
2728,2799,2832
2736,2799,2832
2736,2791,2836
2728,2791,2836
2728,2791,2834
2735,2791,2834
2735,2794,2832
2737,2794,2832
2737,2794,2833
2729,2794,2833
2729,2786,2831
2737,2786,2831
2737,2794,2835
2732,2794,2835
2732,2790,2834
2729,2790,2834
2729,2794,2836
2737,2794,2836
2737,2794,2835
2736,2794,2835
2736,2796,2834
2741,2796,2834
2741,2800,2835
2741,2800,2835
2741,2793,2836
2747,2793,2836
2747,2797,2836
2742,2797,2836
2742,2801,2834
2749,2801,2834
2749,2799,2831
2744,2799,2831
2744,2798,2834
2748,2798,2834
2748,2797,2836
2750,2797,2836
2750,2794,2829
2750,2794,2829
2750,2798,2831
2746,2798,2831
2746,2795,2832
2742,2795,2832
2742,2795,2834
2745,2795,2834
2745,2795,2833
2747,2795,2833
2747,2795,2830
2747,2795,2830
2747,2795,2835
2744,2795,2835
2744,2795,2828
2744,2799,2828
2742,2799,2828
2742,2799,2826
2742,2798,2826
2743,2798,2826
2743,2797,2833
2742,2797,2833
2742,2800,2829
2742,2800,2829
2742,2793,2831
2742,2793,2831
2742,2797,2828
2742,2797,2828
2742,2801,2829
2742,2801,2829
2742,2798,2835
2741,2798,2835
2741,2799,2828
2744,2799,2828
2744,2791,2819
2742,2791,2819
2742,2803,2824
2740,2803,2824
2740,2794,2832
2745,2794,2832
2745,2801,2853
2740,2801,2853
2740,2806,2856
2737,2806,2856
2737,2806,2852
2737,2801,2852
2738,2801,2852
2738,2801,2845
2738,2793,2845
2744,2793,2845
2744,2793,2844
2744,2792,2844
2741,2792,2844
2741,2792,2836
2741,2780,2836
2744,2780,2836
2735,2780,2812
2646,2805,2813
2735,2780,2812
2735,2812,2819
2738,2812,2819
2738,2823,2821
2740,2823,2821
2740,2826,2827
2735,2826,2827
2735,2826,2831
2735,2826,2831
2739,2826,2831
2739,2826,2833
2739,2825,2833
2738,2825,2833
2738,2825,2830
2738,2803,2830
2736,2803,2830
2736,2803,2831
2736,2794,2831
2746,2794,2831
2746,2794,2830
2746,2799,2830
2748,2799,2830
2748,2799,2829
2748,2799,2829
2747,2799,2829
2747,2799,2829
2747,2800,2829
2747,2800,2829
2747,2800,2829
2747,2799,2829
2746,2799,2829
2746,2799,2827
2746,2798,2827
2743,2798,2827
2743,2798,2827
2743,2800,2827
2741,2800,2827
2741,2800,2827
2741,2807,2827
2746,2807,2827
2746,2807,2830
2746,2797,2830
2733,2797,2830
2733,2797,2829
2733,2799,2829
2743,2799,2829
2743,2799,2827
2743,2803,2827
2747,2803,2827
2747,2803,2821
2747,2799,2821
2740,2799,2821
2740,2799,2825
2740,2795,2825
2744,2795,2825
2744,2795,2827
2744,2796,2827
2747,2796,2827
2747,2796,2826
2747,2795,2826
2742,2795,2826
2742,2795,2826
2742,2798,2826
2746,2798,2826
2746,2798,2825
2746,2801,2825
2743,2801,2825
2743,2801,2829
2743,2794,2829
2740,2794,2829
2740,2794,2833
2740,2801,2833
2738,2801,2833
2738,2801,2832
2738,2806,2832
2734,2806,2832
2734,2806,2831
2734,2804,2831
2741,2804,2831
2741,2804,2823
2741,2796,2823
2735,2796,2823
2735,2796,2828
2735,2797,2828
2738,2797,2828
2738,2797,2830
2738,2804,2830
2741,2804,2830
2741,2804,2826
2741,2802,2826
2737,2802,2826
2737,2802,2833
2737,2803,2833
2735,2803,2833
2735,2803,2833
2735,2802,2833
2735,2802,2833
2735,2802,2822
2735,2803,2822
2736,2803,2822
2736,2803,2832
2736,2802,2832
2731,2802,2832
2731,2802,2827
2731,2797,2827
2738,2797,2827
2738,2797,2827
2738,2803,2827
2738,2803,2827
2738,2803,2826
2738,2800,2826
2739,2800,2826
2739,2800,2823
2739,2802,2823
2731,2802,2823
2731,2802,2823
2731,2801,2823
2726,2801,2823
2726,2801,2828
2726,2804,2828
2731,2804,2828
2731,2804,2825
2731,2803,2825
2737,2803,2825
2737,2803,2826
2737,2799,2826
2735,2799,2826
2735,2799,2826
2735,2798,2826
2731,2798,2826
2731,2798,2824
2731,2804,2824
2738,2804,2824
2738,2804,2829
2738,2805,2829
2738,2805,2829
2738,2805,2829
2738,2801,2829
2745,2801,2829
2745,2801,2822
2745,2800,2822
2747,2800,2822
2747,2800,2825
2747,2799,2825
2740,2799,2825
2740,2799,2816
2740,2806,2816
2738,2806,2816
2738,2806,2824
2738,2803,2824
2734,2803,2824
2734,2803,2827
2734,2798,2827
2732,2798,2827
2732,2798,2831
2732,2808,2831
2744,2808,2831
2744,2808,2842
2744,2799,2842
2745,2799,2842
2745,2799,2847
2745,2801,2847
2755,2801,2847
2755,2801,2847
2755,2798,2847
2762,2798,2847
2762,2798,2845
2762,2803,2845
2771,2803,2845
2771,2803,2847
2771,2802,2847
2761,2802,2847
2761,2802,2843
2761,2800,2843
2764,2800,2843
2764,2800,2850
2764,2799,2850
2755,2799,2850
2755,2799,2844
2755,2797,2844
2753,2797,2844
2753,2797,2848
2753,2792,2848
2752,2792,2848
2752,2792,2847
2752,2789,2847
2747,2789,2847
2747,2789,2833
2747,2790,2833
2744,2781,2830
2736,2805,2813
2744,2781,2818
2744,2779,2818
2744,2779,2818
2744,2779,2810
2744,2769,2810
2742,2769,2810
2742,2769,2796
2742,2776,2796
2745,2776,2796
2745,2776,2798
2745,2794,2798
2735,2794,2798
2735,2794,2803
2735,2797,2803
2735,2797,2803
2735,2797,2810
2735,2816,2810
2737,2816,2810
2737,2816,2816
2737,2831,2816
2741,2831,2816
2741,2831,2819
2741,2825,2819
2744,2825,2819
2744,2825,2818
2744,2824,2818
2747,2824,2818
2747,2824,2818
2747,2826,2818
2751,2826,2818
2751,2826,2824
2751,2822,2824
2747,2822,2824
2747,2822,2823
2747,2819,2823
2740,2819,2823
2740,2819,2821
2740,2826,2821
2732,2826,2821
2732,2826,2823
2732,2827,2823
2729,2827,2823
2729,2827,2827
2729,2829,2827
2721,2829,2827
2721,2829,2820
2721,2832,2820
2722,2832,2820
2722,2832,2827
2722,2857,2827
2729,2857,2827
2729,2857,2822
2729,2828,2822
2724,2828,2822
2724,2828,2826
2724,2816,2826
2724,2816,2826
2724,2816,2827
2724,2811,2827
2726,2811,2827
2726,2811,2826
2726,2803,2826
2731,2803,2826
2731,2803,2826
2731,2795,2826
2727,2795,2826
2727,2795,2827
2727,2798,2827
2731,2798,2827
2731,2798,2830
2731,2789,2830
2732,2789,2830
2732,2789,2829
2732,2799,2829
2738,2799,2829
2738,2799,2822
2738,2803,2822
2737,2803,2822
2737,2803,2828
2737,2803,2828
2742,2803,2828
2742,2803,2828
2742,2805,2828
2743,2805,2828
2743,2805,2827
2743,2807,2827
2741,2807,2827
2741,2807,2825
2741,2801,2825
2740,2801,2825
2740,2801,2821
2740,2807,2821
2736,2807,2821
2736,2807,2823
2736,2809,2823
2735,2809,2823
2735,2809,2823
2735,2803,2823
2734,2803,2823
2734,2803,2821
2734,2804,2821
2738,2804,2821
2738,2804,2818
2738,2804,2818
2739,2804,2818
2739,2804,2823
2739,2800,2823
2741,2800,2823
2741,2800,2820
2741,2804,2820
2733,2804,2820
2733,2804,2822
2733,2802,2822
2735,2802,2822
2735,2802,2818
2735,2801,2818
2739,2801,2818
2739,2801,2822
2739,2799,2822
2734,2799,2822
2734,2799,2818
2734,2799,2818
2740,2799,2818
2740,2799,2822
2740,2799,2822
2735,2799,2822
2735,2799,2824
2735,2805,2824
2735,2805,2824
2735,2805,2824
2735,2800,2824
2730,2800,2824
2730,2800,2823
2730,2800,2823
2736,2800,2823
2736,2800,2821
2736,2805,2821
2731,2805,2821
2731,2805,2817
2731,2801,2817
2733,2801,2817
2733,2801,2822
2733,2800,2822
2731,2800,2822
2731,2800,2815
2731,2804,2815
2737,2804,2815
2737,2804,2821
2737,2802,2821
2725,2802,2821
2725,2802,2820
2725,2796,2820
2730,2796,2820
2730,2796,2823
2730,2797,2823
2727,2797,2823
2727,2797,2825
2727,2803,2825
2729,2803,2825
2729,2803,2818
2729,2803,2818
2732,2803,2818
2732,2803,2820
2732,2803,2820
2726,2803,2820
2726,2803,2820
2726,2801,2820
2724,2801,2820
2724,2801,2817
2724,2804,2817
2722,2804,2817
2722,2804,2821
2722,2805,2821
2725,2805,2821
2725,2805,2819
2725,2802,2819
2722,2802,2819
2722,2802,2818
2722,2806,2818
2728,2806,2818
2728,2806,2813
2728,2801,2813
2723,2801,2813
2723,2801,2810
2723,2801,2810
2723,2801,2810
2723,2801,2820
2723,2799,2820
2722,2799,2820
2722,2799,2832
2722,2800,2832
2725,2800,2832
2725,2800,2848
2725,2800,2848
2718,2800,2848
2718,2800,2844
2718,2801,2844
2722,2801,2844
2722,2801,2841
2722,2794,2841
2723,2794,2841
2723,2794,2838
2723,2795,2838
2727,2795,2838
2727,2795,2835
2727,2791,2835
2726,2791,2835
2726,2791,2812
2726,2786,2812
2733,2786,2812
2733,2786,2805
2733,2808,2805
2739,2808,2805
2739,2808,2813
2739,2819,2813
2735,2819,2813
2735,2819,2813
2735,2823,2813
2732,2823,2813
2732,2823,2821
2732,2831,2821
2733,2831,2821
2733,2831,2822
2733,2829,2822
2728,2829,2822
2728,2829,2822
2728,2822,2822
2734,2822,2822
2734,2822,2821
2734,2794,2821
2738,2794,2821
2738,2794,2818
2736,2794,2818
2736,2794,2821
2739,2795,2821
2739,2795,2820
2730,2801,2820
2730,2801,2825
2730,2801,2825
2733,2801,2825
2733,2801,2819
2733,2801,2819
2731,2801,2819
2731,2801,2825
2731,2805,2825
2729,2805,2825
2729,2805,2821
2729,2803,2821
2732,2803,2821
2732,2803,2823
2732,2798,2823
2722,2798,2823
2722,2798,2820
2722,2801,2820
2735,2801,2820
2735,2801,2814
2735,2799,2814
2732,2799,2814
2732,2799,2818
2732,2803,2818
2727,2803,2818
2727,2803,2813
2727,2802,2813
2729,2802,2813
2729,2802,2816
2729,2806,2816
2729,2806,2819
2729,2796,2819
2725,2796,2819
2725,2796,2814
2725,2805,2814
2722,2805,2814
2722,2805,2824
2722,2805,2824
2728,2805,2824
2728,2805,2816
2728,2799,2816
2720,2799,2816
2720,2799,2818
2720,2799,2818
2722,2799,2818
2722,2799,2814
2722,2802,2814
2723,2802,2814
2723,2802,2818
2715,2798,2818
2715,2798,2809
2719,2800,2809
2719,2800,2817
2719,2803,2817
2724,2803,2817
2724,2803,2814
2724,2805,2814
2721,2805,2814
2721,2805,2816
2721,2804,2816
2719,2804,2816
2719,2804,2820
2719,2805,2820
2719,2805,2820
2719,2805,2823
2719,2802,2823
2723,2802,2823
2723,2802,2822
2722,2807,2822
2722,2807,2813
2711,2812,2813
2711,2812,2819
2714,2802,2819
2714,2802,2814
2714,2804,2814
2714,2804,2817
2715,2808,2817
2715,2808,2819
2719,2808,2819
2719,2808,2823
2725,2801,2823
2725,2801,2829
2722,2809,2829
2722,2809,2838
2728,2811,2838
2728,2811,2850
2728,2802,2850
2728,2802,2849
2731,2802,2849
2731,2802,2847
2727,2803,2847
2727,2803,2842
2727,2805,2842
2727,2805,2842
2727,2804,2842
2727,2804,2840
2720,2807,2840
2720,2807,2836
2714,2804,2836
2714,2804,2829
2718,2804,2829
2718,2804,2827
2718,2806,2827
2711,2806,2827
2711,2806,2817
2711,2804,2817
2710,2804,2805
2710,2814,2805
2714,2814,2799
2714,2809,2799
2728,2809,2807
2728,2814,2807
2732,2814,2807
2732,2814,2808
2732,2806,2808
2738,2806,2811
2738,2804,2811
2739,2804,2808
2739,2801,2808
2736,2801,2802
2736,2793,2802
2738,2793,2806
2738,2806,2806
2745,2806,2833
2745,2804,2833
2750,2804,2855
2747,2808,2855
2747,2808,2849
2745,2802,2849
2745,2802,2839
2738,2796,2839
2738,2796,2833
2728,2793,2833
2728,2793,2836
2715,2784,2836
2715,2784,2818
2714,2789,2818
2714,2789,2802
2720,2814,2802
2720,2814,2811
2717,2816,2811
2717,2816,2815
2726,2826,2815
2726,2826,2814
2748,2831,2814
2748,2831,2818
2751,2834,2818
2751,2834,2821
2747,2822,2821
2747,2822,2816
2743,2803,2816
2743,2803,2819
2737,2797,2825
2734,2799,2825
2734,2799,2824
2736,2803,2824
2736,2803,2819
2736,2790,2819
2736,2790,2821
2736,2803,2821
2736,2803,2821
2734,2800,2821
2734,2800,2824
2735,2800,2824
2735,2800,2824
2729,2793,2824
2729,2793,2819
2718,2787,2819
2718,2787,2820
2710,2791,2816
2714,2806,2816
2714,2806,2816
2711,2818,2816
2711,2818,2820
2717,2821,2820
2717,2821,2819
2718,2819,2819
2718,2819,2819
2717,2819,2819
2716,2824,2817
2719,2831,2816
2719,2827,2815
2719,2829,2814
2720,2832,2814
2720,2832,2816
2724,2836,2816
2716,2828,2818
2717,2819,2821
2719,2810,2813
2719,2803,2817
2718,2797,2817
2717,2794,2817
2717,2794,2817
2719,2796,2821
2722,2797,2815
2720,2800,2820
2716,2794,2818
2713,2812,2819
2721,2804,2807
2713,2804,2807
2713,2804,2822
2713,2803,2819
2716,2800,2817
2707,2806,2820
2720,2807,2821
2716,2808,2812
2713,2804,2819
2710,2804,2829
2710,2806,2829
2714,2806,2824
2714,2806,2824
2708,2806,2824
2708,2820,2820
2709,2820,2820
2709,2814,2819
2718,2814,2821
2718,2810,2821
2724,2810,2821
2724,2809,2821
2723,2807,2822
2722,2807,2813
2722,2809,2813
2722,2809,2829
2722,2800,2829
2720,2800,2818
2720,2808,2818
2721,2808,2811
2721,2809,2811
2724,2809,2811
2724,2806,2811
2727,2806,2818
2727,2804,2818
2725,2804,2832
2725,2807,2832
2726,2807,2841
2726,2801,2841
2725,2801,2836
2725,2797,2836
2717,2797,2846
2717,2803,2846
2724,2803,2830
2724,2793,2830
2724,2793,2832
2724,2791,2832
2722,2791,2810
2722,2787,2810
2717,2787,2800
2717,2793,2800
2719,2793,2806
2719,2813,2806
2722,2813,2804
2722,2823,2804
2717,2823,2810
2717,2826,2810
2716,2826,2812
2716,2831,2812
2718,2831,2817
2718,2831,2817
2718,2831,2809
2718,2822,2809
2713,2822,2816
2713,2806,2816
2721,2806,2815
2721,2797,2815
2720,2797,2814
2720,2796,2814
2716,2796,2816
2716,2801,2816
2717,2801,2815
2717,2803,2815
2718,2803,2814
2718,2802,2814
2716,2802,2817
2716,2803,2817
2705,2803,2814
2705,2803,2814
2713,2803,2818
2713,2802,2818
2717,2802,2816
2717,2801,2816
2708,2801,2815
2708,2807,2815
2715,2807,2821
2715,2802,2821
2716,2802,2819
2716,2803,2819
2714,2803,2814
2714,2802,2814
2714,2802,2815
2714,2803,2815
2709,2803,2818
2709,2806,2818
2707,2806,2819
2707,2807,2819
2714,2807,2809
2714,2808,2809
2714,2808,2811
2714,2804,2811
2710,2804,2816
2710,2804,2816
2714,2804,2818
2714,2805,2818
2708,2805,2822
2708,2809,2822
2717,2809,2832
2717,2804,2832
2718,2804,2843
2718,2811,2843
2720,2811,2846
2720,2808,2846
2724,2808,2846
2724,2805,2846
2717,2805,2840
2717,2804,2840
2718,2804,2841
2718,2802,2841
2719,2802,2838
2719,2800,2838
2721,2800,2834
2721,2799,2834
2712,2799,2831
2712,2797,2831
2718,2797,2828
2718,2802,2828
2716,2802,2824
2716,2804,2824
2711,2804,2811
2711,2802,2811
2707,2802,2798
2707,2801,2798
2713,2801,2799
2713,2804,2799
2729,2804,2809
2729,2799,2809
2725,2799,2814
2725,2799,2814
2729,2799,2816
2729,2802,2816
2732,2802,2811
2732,2794,2811
2734,2794,2812
2734,2800,2812
2734,2800,2810
2740,2800,2810
2740,2797,2810
2740,2797,2817
2733,2797,2817
2733,2798,2817
2733,2798,2823
2742,2798,2823
2742,2797,2823
2742,2797,2817
2737,2797,2817
2737,2797,2817
2737,2797,2818
2736,2797,2818
2736,2793,2818
2736,2793,2824
2729,2790,2824
2729,2790,2821
2721,2795,2821
2712,2795,2824
2712,2793,2824
2702,2793,2818
2702,2801,2818
2702,2801,2816
2705,2801,2816
2705,2793,2816
2705,2793,2810
2709,2793,2810
2709,2794,2810
2709,2794,2805
2704,2794,2805
2704,2795,2805
2704,2795,2806
2706,2795,2806
2706,2793,2806
2706,2793,2819
2711,2793,2819
2711,2792,2819
2711,2792,2835
2712,2792,2835
2712,2795,2835
2712,2795,2841
2716,2795,2841
2716,2796,2841
2716,2796,2835
2709,2796,2835
2709,2794,2835
2709,2794,2835
2707,2794,2835
2707,2787,2835
2707,2787,2831
2710,2787,2831
2710,2793,2831
2710,2793,2819
2708,2793,2819
2708,2788,2819
2708,2788,2801
2707,2788,2801
2707,2784,2801
2707,2784,2806
2709,2784,2806
2709,2811,2806
2709,2811,2814
2707,2811,2814
2707,2816,2814
2707,2816,2805
2716,2816,2805
2716,2823,2805
2716,2823,2816
2716,2823,2816
2716,2827,2816
2716,2827,2814
2726,2827,2814
2726,2834,2814
2726,2834,2816
2719,2834,2816
2719,2824,2816
2719,2824,2817
2725,2824,2817
2725,2800,2817
2725,2800,2821
2715,2800,2821
2715,2788,2821
2715,2788,2823
2727,2788,2823
2727,2799,2823
2727,2799,2824
2724,2799,2824
2724,2801,2824
2724,2801,2818
2716,2801,2818
2716,2795,2818
2716,2795,2818
2712,2795,2818
2712,2801,2818
2712,2801,2816
2713,2801,2816
2713,2801,2816
2713,2801,2815
2711,2801,2815
2711,2802,2815
2711,2802,2817
2718,2802,2817
2718,2793,2817
2718,2793,2821
2728,2793,2821
2728,2798,2821
2728,2798,2812
2724,2798,2812
2724,2794,2812
2724,2794,2815
2737,2794,2815
2737,2798,2815
2737,2798,2814
2742,2798,2814
2742,2800,2814
2742,2800,2814
2743,2800,2814
2743,2801,2814
2741,2801,2817
2747,2798,2816
2736,2801,2813
2747,2798,2812
2733,2798,2812
2733,2791,2812
2733,2791,2816
2734,2791,2816
2734,2790,2816
2734,2790,2817
2729,2790,2817
2729,2793,2817
2729,2793,2811
2732,2793,2811
2732,2779,2811
2732,2779,2820
2723,2779,2820
2723,2782,2820
2723,2782,2820
2721,2782,2820
2721,2784,2820
2721,2784,2816
2723,2784,2816
2723,2778,2816
2723,2778,2821
2712,2778,2821
2712,2779,2821
2712,2779,2818
2697,2779,2818
2697,2781,2818
2697,2781,2819
2697,2781,2819
2697,2789,2819
2697,2789,2819
2703,2789,2819
2703,2802,2819
2703,2802,2815
2700,2802,2815
2700,2809,2815
2700,2809,2817
2700,2809,2817
2700,2813,2817
2700,2813,2817
2702,2813,2817
2702,2815,2817
2702,2815,2819
2704,2815,2819
2704,2817,2819
2704,2817,2821
2724,2817,2821
2724,2819,2821
2724,2819,2821
2708,2819,2821
2708,2829,2821
2708,2829,2821
2716,2829,2821
2716,2829,2821
2716,2829,2821
2714,2829,2821
2714,2828,2821
2714,2828,2822
2721,2828,2822
2721,2826,2822
2721,2826,2826
2725,2826,2826
2725,2827,2826
2725,2827,2818
2719,2827,2818
2719,2827,2818
2719,2827,2817
2722,2827,2817
2722,2819,2817
2722,2819,2821
2723,2819,2821
2723,2808,2821
2723,2808,2815
2726,2808,2815
2726,2805,2815
2726,2805,2820
2722,2805,2820
2722,2794,2820
2722,2794,2821
2719,2794,2821
2719,2787,2821
2719,2787,2820
2727,2787,2820
2727,2788,2820
2727,2788,2817
2721,2788,2817
2721,2783,2817
2721,2783,2821
2720,2783,2821
2720,2789,2821
2720,2789,2817
2717,2789,2817
2717,2794,2817
2717,2794,2819
2728,2794,2819
2728,2795,2819
2728,2795,2820
2719,2795,2820
2719,2790,2820
2719,2790,2821
2723,2790,2821
2723,2794,2821
2723,2794,2815
2719,2794,2815
2719,2792,2815
2719,2792,2812
2717,2792,2812
2717,2795,2812
2717,2795,2809
2727,2795,2809
2727,2794,2809
2727,2794,2816
2715,2794,2816
2715,2797,2816
2715,2797,2821
2713,2797,2821
2713,2799,2821
2713,2799,2838
2719,2799,2838
2719,2793,2838
2719,2793,2849
2717,2793,2849
2717,2793,2849
2717,2793,2842
2718,2793,2842
2718,2788,2842
2718,2788,2837
2719,2788,2837
2719,2789,2837
2719,2789,2829
2722,2789,2829
2722,2781,2829
2722,2781,2827
2721,2781,2827
2721,2778,2827
2721,2778,2797
2712,2778,2797
2712,2792,2797
2712,2792,2802
2718,2792,2802
2718,2800,2802
2718,2800,2812
2716,2800,2812
2716,2807,2812
2716,2807,2812
2713,2807,2812
2713,2819,2812
2713,2819,2813
2709,2819,2813
2709,2817,2813
2709,2817,2820
2717,2817,2820
2717,2819,2820
2717,2819,2816
2710,2819,2816
2710,2810,2816
2710,2810,2822
2711,2810,2822
2711,2795,2822
2711,2795,2818
2710,2795,2818
2710,2787,2818
2710,2787,2821
2712,2787,2821
2712,2792,2821
2712,2792,2825
2715,2792,2825
2715,2796,2825
2715,2796,2816
2714,2796,2816
2714,2797,2816
2714,2797,2817
2713,2797,2817
2713,2794,2817
2713,2794,2820
2715,2794,2820
2715,2799,2820
2715,2799,2821
2719,2799,2821
2719,2800,2821
2719,2800,2819
2718,2800,2819
2718,2799,2819
2718,2799,2829
2721,2799,2829
2721,2799,2829
2721,2799,2833
2724,2799,2833
2724,2800,2833
2721,2801,2841
2736,2801,2848
2728,2801,2841
2728,2806,2841
2728,2806,2847
2725,2806,2847
2725,2792,2847
2725,2792,2849
2724,2792,2849
2724,2796,2849
2724,2796,2845
2719,2796,2845
2719,2798,2845
2719,2798,2837
2726,2798,2837
2726,2795,2837
2726,2795,2834
2723,2795,2834
2723,2795,2834
2723,2795,2833
2718,2795,2833
2718,2794,2833
2718,2794,2841
2715,2794,2841
2715,2801,2841
2715,2801,2827
2711,2801,2827
2711,2791,2827
2711,2791,2815
2706,2791,2815
2706,2794,2815
2706,2794,2803
2707,2794,2803
2707,2796,2803
2707,2796,2809
2724,2796,2809
2724,2797,2809
2724,2797,2811
2735,2797,2811
2735,2792,2811
2735,2792,2816
2735,2792,2816
2735,2798,2816
2735,2798,2816
2733,2798,2816
2733,2794,2816
2733,2794,2814
2737,2794,2814
2737,2795,2814
2737,2795,2816
2735,2795,2816
2735,2804,2816
2735,2804,2820
2740,2804,2820
2740,2797,2820
2740,2797,2821
2741,2797,2821
2741,2795,2821
2741,2795,2823
2751,2795,2823
2751,2793,2823
2751,2793,2823
2745,2793,2823
2745,2796,2823
2745,2796,2824
2731,2796,2824
2731,2795,2824
2731,2795,2822
2719,2795,2822
2719,2796,2822
2719,2796,2825
2717,2796,2825
2717,2799,2825
2717,2799,2822
2708,2799,2822
2708,2800,2822
2708,2800,2821
2711,2800,2821
2711,2797,2821
2711,2797,2827
2708,2797,2827
2708,2801,2827
2708,2801,2821
2715,2801,2821
2715,2799,2821
2715,2799,2822
2717,2799,2822
2717,2796,2822
2717,2796,2825
2708,2796,2825
2708,2798,2825
2708,2798,2829
2711,2798,2829
2711,2796,2829
2711,2796,2831
2715,2796,2831
2715,2797,2831
2715,2797,2830
2712,2797,2830
2712,2800,2830
2712,2800,2821
2719,2800,2821
2719,2798,2821
2719,2798,2821
2719,2798,2821
2719,2799,2821
2719,2799,2830
2712,2799,2830
2712,2801,2830
2712,2801,2829
2713,2801,2829
2713,2797,2829
2713,2797,2826
2719,2797,2826
2719,2797,2826
2719,2797,2829
2723,2797,2829
2723,2802,2829
2723,2802,2817
2724,2802,2817
2724,2800,2817
2724,2800,2818
2730,2800,2818
2730,2800,2818
2730,2800,2821
2730,2800,2821
2730,2801,2821
2730,2801,2834
2725,2801,2834
2725,2794,2834
2725,2794,2850
2728,2794,2850
2728,2800,2850
2728,2800,2854
2721,2800,2854
2721,2797,2854
2721,2797,2847
2729,2797,2847
2729,2791,2847
2729,2791,2840
2729,2791,2840
2729,2786,2840
2729,2786,2837
2734,2786,2837
2734,2779,2837
2734,2779,2821
2731,2779,2821
2731,2782,2821
2723,2782,2805
2724,2804,2813
2724,2808,2813
2718,2808,2813
2721,2813,2818
2721,2823,2820
2717,2823,2820
2717,2827,2820
2717,2827,2825
2723,2827,2825
2723,2817,2825
2723,2817,2824
2720,2817,2824
2720,2797,2824
2720,2797,2827
2727,2797,2827
2727,2788,2827
2726,2788,2827
2726,2792,2827
2726,2792,2823
2719,2792,2823
2719,2794,2823
2719,2794,2821
2715,2794,2821
2715,2798,2821
2715,2798,2827
2719,2798,2827
2719,2797,2827
2719,2797,2829
2717,2797,2829
2717,2797,2829
2717,2797,2827
2726,2797,2827
2726,2794,2827
2726,2794,2827
2718,2794,2827
2718,2799,2827
2718,2799,2827
2720,2799,2827
2720,2800,2827
2720,2800,2831
2718,2800,2831
2718,2797,2840
2719,2797,2840
2719,2797,2828
2719,2797,2828
2719,2797,2828
2717,2797,2828
2717,2800,2829
2715,2800,2829
2715,2803,2829
2715,2803,2829
2715,2800,2827
2713,2800,2827
2713,2803,2828
2713,2803,2828
2713,2799,2829
2708,2799,2829
2708,2797,2832
2710,2797,2832
2710,2801,2828
2713,2801,2828
2713,2800,2830
2716,2800,2830
2716,2804,2835
2722,2804,2835
2722,2803,2831
2735,2803,2831
2735,2803,2831
2735,2803,2832
2745,2803,2832
2745,2804,2836
2749,2804,2836
2749,2798,2831
2754,2798,2831
2754,2798,2830
2753,2798,2830
2753,2798,2830
2750,2798,2830
2750,2798,2827
2746,2798,2827
2746,2798,2827
2746,2798,2827
2746,2792,2830
2744,2792,2830
2744,2792,2829
2738,2792,2829
2738,2793,2834
2739,2793,2834
2739,2789,2826
2734,2789,2826
2734,2788,2835
2722,2788,2835
2722,2784,2830
2712,2784,2830
2712,2780,2828
2705,2780,2828
2705,2794,2826
2715,2794,2826
2715,2799,2833
2717,2799,2833
2717,2809,2830
2721,2809,2830
2721,2810,2827
2719,2810,2827
2719,2815,2834
2720,2815,2834
2720,2814,2832
2718,2814,2832
2718,2817,2835
2720,2817,2835
2720,2823,2838
2720,2823,2838
2720,2824,2834
2721,2824,2834
2721,2828,2833
2723,2828,2833
2723,2833,2828
2721,2833,2828
2721,2832,2832
2727,2832,2832
2727,2817,2832
2724,2817,2832
2724,2809,2828
2721,2809,2828
2721,2809,2826
2721,2800,2826
2715,2800,2826
2715,2800,2823
2715,2790,2823
2725,2790,2823
2725,2790,2833
2725,2798,2833
2725,2798,2833
2725,2798,2843
2718,2793,2843
2717,2791,2857
2717,2793,2863
2717,2793,2863
2716,2793,2854
2736,2801,2851
2716,2783,2854
2714,2785,2846
2715,2787,2838
2716,2801,2851
2715,2787,2817
2715,2782,2817
2714,2782,2817
2714,2782,2823
2714,2804,2823
2721,2804,2823
2721,2804,2831
2721,2816,2831
2724,2816,2831
2724,2816,2825
2724,2816,2825
2721,2816,2825
2721,2816,2828
2721,2830,2828
2725,2830,2828
2725,2830,2830
2725,2831,2830
2733,2831,2830
2733,2831,2825
2733,2820,2825
2735,2820,2825
2735,2820,2832
2735,2802,2832
2728,2802,2832
2728,2802,2835
2728,2792,2835
2734,2792,2835
2734,2792,2842
2734,2792,2842
2729,2792,2842
2729,2792,2855
2729,2797,2855
2727,2797,2855
2727,2797,2860
2727,2811,2860
2742,2811,2860
2742,2811,2862
2742,2786,2862
2728,2786,2862
2728,2786,2859
2728,2798,2859
2745,2798,2859
2745,2798,2858
2745,2805,2858
2722,2805,2858
2722,2805,2853
2722,2799,2853
2722,2799,2853
2722,2799,2850
2722,2800,2850
2722,2800,2850
2722,2800,2845
2722,2796,2845
2715,2796,2845
2715,2796,2848
2715,2792,2848
2713,2792,2848
2713,2792,2846
2713,2793,2846
2710,2793,2846
2710,2793,2833
2710,2795,2833
2712,2795,2833
2712,2795,2821
2712,2800,2821
2715,2800,2821
2715,2800,2816
2715,2796,2816
2731,2796,2816
2731,2796,2824
2731,2796,2824
2741,2796,2824
2741,2796,2830
2741,2797,2830
2741,2797,2830
2741,2797,2828
2741,2795,2828
2740,2795,2828
2740,2795,2831
2740,2804,2831
2737,2804,2831
2737,2804,2831
2737,2801,2831
2744,2801,2831
2744,2801,2834
2744,2798,2834
2744,2798,2834
2744,2798,2836
2744,2796,2836
2748,2796,2836
2748,2796,2837
2748,2803,2837
2746,2803,2837
2746,2803,2833
2746,2799,2833
2743,2799,2833
2743,2799,2837
2743,2798,2837
2736,2798,2837
2736,2798,2837
2736,2798,2837
2731,2798,2837
2731,2798,2834
2731,2808,2834
2721,2808,2834
2721,2808,2835
2721,2796,2835
2718,2796,2835
2718,2796,2840
2718,2799,2840
2720,2799,2840
2720,2799,2832
2720,2805,2832
2720,2805,2832
2720,2805,2834
2720,2799,2834
2723,2799,2834
2723,2799,2839
2723,2802,2839
2718,2802,2839
2718,2802,2838
2718,2800,2838
2721,2800,2838
2721,2800,2840
2721,2800,2840
2725,2800,2840
2725,2800,2839
2725,2803,2839
2727,2803,2839
2727,2803,2837
2727,2803,2837
2726,2803,2837
2726,2803,2840
2726,2801,2840
2727,2801,2840
2727,2801,2839
2727,2805,2839
2730,2805,2839
2730,2805,2834
2730,2808,2834
2731,2808,2834
2731,2808,2838
2731,2805,2838
2735,2805,2838
2735,2805,2841
2735,2801,2841
2737,2801,2841
2737,2801,2839
2737,2804,2839
2736,2804,2839
2736,2804,2840
2736,2801,2840
2732,2801,2840
2732,2801,2837
2732,2796,2837
2735,2796,2837
2735,2796,2833
2735,2805,2833
2734,2805,2833
2734,2805,2834
2734,2800,2834
2740,2800,2834
2740,2800,2833
2740,2797,2833
2739,2797,2833
2739,2797,2835
2739,2797,2835
2734,2797,2835
2734,2797,2836
2734,2803,2836
2733,2803,2836
2733,2803,2833
2733,2801,2833
2735,2801,2833
2735,2801,2840
2735,2797,2840
2731,2797,2840
2731,2797,2829
2731,2798,2829
2730,2798,2829
2730,2798,2825
2730,2796,2825
2732,2796,2825
2732,2796,2836
2732,2797,2836
2728,2797,2836
2728,2797,2853
2728,2803,2853
2731,2803,2853
2731,2803,2860
2731,2801,2860
2728,2801,2860
2728,2801,2861
2728,2796,2861
2729,2796,2861
2729,2796,2854
2729,2795,2854
2728,2795,2854
2728,2795,2851
2728,2790,2851
2730,2790,2851
2730,2790,2847
2730,2785,2847
2723,2785,2847
2723,2785,2821
2723,2781,2821
2729,2781,2821
2729,2781,2823
2729,2802,2823
2726,2802,2823
2726,2802,2829
2726,2812,2829
2727,2812,2829
2727,2812,2829
2727,2815,2829
2733,2815,2829
2733,2815,2829
2733,2824,2829
2722,2824,2829
2722,2824,2836
2722,2830,2836
2729,2830,2836
2729,2830,2839
2729,2824,2839
2731,2824,2839
2731,2824,2841
2731,2803,2841
2725,2803,2841
2725,2803,2835
2725,2793,2835
2731,2793,2835
2731,2793,2841
2731,2794,2841
2725,2794,2841
2725,2794,2836
2725,2802,2836
2725,2802,2836
2725,2802,2842
2725,2802,2842
2724,2802,2842
2724,2802,2836
2724,2801,2836
2721,2801,2836
2721,2801,2836
2721,2801,2836
2728,2801,2836
2728,2801,2843
2728,2798,2843
2734,2798,2843
2734,2798,2842
2734,2804,2842
2733,2804,2842
2733,2804,2838
2733,2803,2838
2736,2803,2838
2736,2803,2845
2736,2803,2845
2734,2803,2845
2734,2803,2837
2734,2804,2837
2736,2804,2837
2736,2804,2839
2736,2804,2839
2739,2804,2839
2739,2804,2838
2739,2803,2838
2743,2803,2838
2743,2803,2838
2743,2806,2838
2736,2806,2838
2736,2806,2837
2736,2798,2837
2739,2798,2837
2739,2798,2838
2739,2797,2838
2733,2797,2838
2733,2797,2840
2733,2796,2840
2736,2796,2840
2736,2796,2838
2736,2794,2838
2734,2794,2838
2734,2794,2832
2734,2797,2832
2738,2797,2832
2738,2797,2837
2738,2801,2837
2742,2801,2837
2742,2801,2834
2742,2797,2834
2736,2797,2834
2736,2797,2839
2736,2796,2839
2731,2796,2839
2731,2796,2835
2731,2798,2835
2739,2798,2835
2739,2798,2834
2739,2802,2834
2736,2802,2834
2736,2802,2836
2736,2797,2836
2739,2797,2836
2739,2797,2840
2739,2793,2840
2734,2793,2840
2734,2793,2836
2734,2795,2836
2734,2795,2836
2734,2795,2836
2734,2796,2836
2734,2796,2836
2734,2796,2837
2734,2798,2837
2725,2798,2837
2725,2798,2835
2725,2795,2835
2729,2795,2835
2729,2795,2837
2729,2801,2837
2723,2801,2837
2723,2801,2837
2723,2796,2837
2721,2796,2837
2721,2796,2838
2721,2802,2838
2722,2802,2838
2722,2802,2840
2722,2794,2840
2726,2794,2840
2726,2794,2839
2726,2794,2839
2736,2794,2839
2736,2794,2841
2736,2793,2841
2735,2793,2841
2735,2793,2837
2735,2798,2837
2744,2798,2837
2744,2798,2838
2744,2797,2838
2752,2797,2838
2752,2797,2834
2752,2799,2834
2755,2799,2834
2755,2799,2838
2755,2793,2838
2753,2793,2838
2753,2793,2836
2753,2798,2836
2757,2798,2836
2757,2798,2838
2757,2795,2838
2751,2795,2838
2751,2795,2840
2751,2790,2840
2752,2790,2840
2752,2790,2838
2752,2792,2838
2760,2792,2838
2760,2792,2843
2760,2791,2843
2747,2791,2843
2747,2791,2844
2747,2788,2844
2753,2788,2844
2753,2788,2843
2753,2787,2843
2753,2787,2843
2753,2787,2839
2753,2784,2839
2746,2784,2839
2746,2784,2838
2746,2783,2838
2731,2783,2838
2731,2783,2826
2731,2774,2826
2724,2774,2826
2724,2774,2822
2724,2780,2822
2723,2780,2822
2723,2780,2813
2723,2798,2813
2723,2798,2813
2723,2798,2825
2723,2802,2825
2731,2802,2825
2731,2802,2837
2731,2805,2837
2727,2805,2837
2727,2805,2857
2727,2807,2857
2729,2807,2857
2729,2807,2864
2729,2815,2864
2726,2815,2864
2726,2815,2865
2726,2815,2865
2728,2815,2865
2728,2815,2860
2728,2818,2860
2733,2818,2860
2733,2818,2857
2733,2806,2857
2724,2806,2857
2724,2806,2862
2724,2809,2862
2732,2809,2862
2732,2809,2850
2732,2815,2850
2734,2815,2850
2734,2815,2841
2734,2828,2841
2735,2828,2841
2735,2828,2850
2735,2826,2850
2735,2826,2850
2735,2826,2845
2735,2825,2845
2727,2825,2845
2727,2825,2851
2727,2824,2851
2730,2824,2851
2730,2824,2849
2730,2829,2849
2724,2829,2849
2724,2829,2850
2724,2814,2850
2718,2814,2850
2718,2814,2844
2718,2798,2844
2720,2798,2844
2720,2798,2824
2720,2776,2824
2710,2776,2824
2710,2776,2815
2710,2774,2815
2724,2774,2815
2724,2774,2816
2724,2786,2816
2733,2786,2816
2733,2786,2822
2733,2789,2822
2737,2789,2822
2737,2789,2823
2737,2797,2823
2739,2797,2823
2739,2797,2826
2739,2793,2826
2742,2793,2826
2742,2793,2830
2742,2796,2830
2747,2796,2830
2747,2796,2835
2747,2795,2835
2747,2795,2835
2747,2795,2835
2747,2795,2835
2742,2795,2835
2742,2795,2836
2742,2795,2836
2750,2795,2836
2750,2795,2837
2750,2795,2837
2754,2795,2837
2754,2795,2836
2754,2791,2836
2750,2791,2836
2750,2791,2837
2750,2795,2837
2738,2795,2837
2738,2795,2838
2738,2796,2838
2743,2796,2838
2743,2796,2843
2743,2802,2843
2730,2802,2843
2730,2802,2838
2730,2799,2838
2729,2799,2838
2729,2799,2838
2729,2793,2838
2732,2793,2838
2732,2793,2839
2732,2799,2839
2736,2799,2839
2736,2799,2838
2736,2798,2838
2735,2798,2834
2735,2797,2834
2738,2797,2834
2738,2797,2840
2738,2798,2840
2737,2798,2840
2737,2798,2834
2737,2791,2834
2736,2791,2834
2736,2791,2834
2736,2796,2834
2736,2796,2834
2736,2796,2839
2736,2798,2839
2744,2798,2839
2744,2798,2837
2744,2793,2837
2739,2793,2837
2739,2793,2833
2739,2793,2833
2741,2793,2839
2741,2792,2839
2730,2792,2839
2730,2792,2828
2730,2791,2828
2735,2791,2828
2735,2791,2832
2735,2789,2832
2734,2789,2832
2734,2789,2831
2734,2785,2831
2737,2785,2831
2737,2785,2833
2737,2788,2833
2728,2788,2834
2728,2792,2834
2733,2792,2834
2733,2792,2835
2733,2792,2835
2732,2792,2836
2732,2786,2836
2732,2786,2833
2732,2788,2833
2728,2788,2829
2728,2782,2829
2731,2782,2831
2731,2788,2831
2736,2788,2830
2736,2793,2830
2724,2793,2830
2724,2793,2830
2724,2785,2830
2726,2785,2829
2726,2794,2829
2726,2794,2829
2728,2790,2828
2716,2801,2829
2728,2788,2828
2732,2788,2831
2732,2784,2831
2730,2784,2831
2730,2791,2831
2726,2791,2825
2726,2793,2825
2721,2793,2832
2721,2793,2832
2732,2793,2830
2732,2799,2830
2727,2799,2831
2727,2796,2831
2722,2796,2829
2722,2792,2829
2725,2792,2832
2725,2794,2832
2728,2794,2834
2728,2791,2834
2727,2791,2827
2727,2803,2827
2726,2803,2835
2726,2789,2835
2723,2789,2840
2723,2789,2840
2726,2789,2856
2726,2787,2856
2722,2787,2855
2722,2786,2855
2724,2786,2854
2724,2780,2854
2723,2780,2851
2723,2777,2851
2735,2777,2844
2735,2785,2844
2734,2785,2821
2734,2784,2821
2734,2784,2807
2734,2805,2807
2737,2805,2815
2737,2807,2815
2738,2807,2825
2738,2809,2825
2738,2809,2829
2738,2812,2829
2736,2812,2835
2736,2818,2835
2744,2818,2825
2744,2807,2825
2742,2807,2827
2742,2788,2827
2738,2788,2826
2738,2779,2826
2738,2779,2827
2738,2777,2827
2735,2777,2829
2735,2780,2829
2736,2780,2824
2736,2782,2824
2735,2782,2826
2735,2785,2826
2735,2785,2827
2735,2787,2827
2734,2787,2826
2734,2782,2826
2736,2782,2822
2732,2782,2823
2732,2781,2822
2735,2781,2822
2735,2786,2829
2733,2786,2829
2733,2782,2829
2733,2788,2829
2733,2788,2825
2733,2779,2826
2730,2779,2826
2731,2785,2827
2731,2777,2829
2729,2777,2829
2729,2784,2823
2728,2784,2823
2728,2784,2827
2729,2784,2827
2729,2783,2827
2731,2783,2824
2731,2784,2824
2727,2784,2829
2727,2785,2829
2732,2785,2824
2732,2789,2824
2729,2789,2830
2729,2790,2830
2729,2790,2830
2729,2786,2826
2727,2786,2826
2727,2781,2827
2726,2781,2827
2726,2793,2825
2720,2793,2825
2720,2794,2825
2732,2794,2826
2740,2790,2826
2726,2785,2834
2722,2786,2831
2722,2788,2827
2720,2788,2827
2720,2785,2840
2732,2785,2840
2732,2785,2826
2720,2785,2826
2720,2784,2828
2733,2784,2828
2733,2784,2835
2738,2784,2835
2738,2784,2832
2744,2784,2832
2744,2788,2834
2746,2788,2834
2746,2788,2829
2745,2788,2829
2745,2785,2827
2750,2785,2827
2750,2787,2820
2742,2787,2820
2742,2784,2829
2743,2784,2829
2743,2783,2827
2738,2783,2827
2738,2785,2823
2738,2785,2823
2738,2778,2834
2737,2778,2834
2737,2790,2839
2732,2790,2839
2732,2786,2848
2730,2786,2848
2730,2786,2857
2719,2784,2857
2719,2784,2855
2742,2780,2855
2742,2780,2848
2737,2782,2848
2737,2782,2852
2733,2780,2852
2733,2780,2848
2731,2775,2848
2731,2775,2846
2741,2778,2846
2741,2778,2843
2742,2780,2843
2742,2780,2838
2750,2782,2838
2750,2782,2840
2755,2781,2840
2755,2781,2844
2750,2780,2844
2750,2780,2839
2751,2777,2839
2751,2777,2832
2756,2776,2832
2756,2776,2826
2752,2768,2826
2752,2768,2825
2748,2761,2825
2748,2761,2813
2745,2758,2813
2745,2758,2803
2743,2759,2803
2743,2759,2814
2751,2777,2814
2751,2777,2812
2749,2780,2812
2749,2780,2821
2749,2784,2821
2749,2784,2822
2736,2801,2822
2736,2801,2826
2738,2805,2826
2738,2805,2827
2743,2799,2827
2743,2799,2828
2732,2802,2828
2732,2802,2830
2723,2801,2830
2723,2801,2832
2725,2803,2832
2725,2803,2829
2720,2806,2829
2720,2806,2829
2716,2808,2829
2716,2808,2831
2722,2807,2831
2722,2807,2831
2729,2809,2831
2729,2809,2832
2735,2818,2832
2735,2818,2827
2747,2819,2827
2747,2819,2830
2743,2824,2830
2743,2824,2829
2744,2812,2829
2744,2812,2829
2741,2799,2829
2741,2799,2826
2741,2790,2826
2741,2790,2828
2740,2782,2828
2740,2782,2830
2737,2775,2830
2737,2775,2827
2740,2773,2827
2740,2773,2827
2741,2772,2827
2741,2772,2827
2737,2774,2827
2737,2774,2827
2737,2777,2827
2737,2777,2832
2739,2781,2832
2739,2781,2828
2742,2780,2828
2742,2780,2830
2742,2786,2830
2742,2786,2833
2740,2782,2833
2740,2782,2830
2736,2785,2830
2736,2785,2831
2736,2785,2831
2736,2785,2831
2736,2785,2830
2741,2781,2830
2741,2781,2830
2732,2781,2830
2732,2787,2830
2732,2787,2830
2736,2784,2830
2736,2784,2832
2734,2784,2832
2734,2784,2825
2737,2779,2825
2737,2779,2826
2732,2782,2826
2732,2782,2825
2732,2780,2825
2732,2780,2827
2729,2785,2827
2729,2785,2834
2733,2785,2834
2733,2781,2834
2733,2781,2826
2735,2781,2826
2735,2780,2826
2735,2780,2826
2728,2785,2826
2728,2785,2820
2731,2785,2820
2731,2785,2822
2734,2785,2822
2734,2785,2824
2730,2786,2824
2730,2786,2827
2731,2785,2827
2731,2785,2824
2727,2782,2824
2727,2782,2829
2728,2782,2829
2728,2782,2826
2738,2786,2826
2738,2786,2832
2725,2787,2832
2725,2787,2832
2718,2791,2832
2718,2791,2831
2723,2784,2831
2723,2784,2829
2726,2789,2829
2726,2789,2832
2733,2789,2832
2733,2789,2832
2733,2789,2832
2733,2789,2832
2733,2790,2832
2733,2790,2832
2730,2783,2832
2730,2783,2835
2730,2786,2835
2730,2786,2828
2736,2784,2828
2736,2784,2823
2734,2784,2823
2734,2791,2823
2734,2791,2837
2739,2791,2837
2739,2794,2837
2739,2794,2845
2738,2786,2845
2738,2786,2865
2740,2789,2865
2740,2789,2860
2740,2786,2860
2740,2786,2853
2739,2783,2853
2739,2783,2849
2738,2776,2849
2738,2776,2845
2738,2771,2845
2738,2771,2826
2734,2770,2826
2734,2770,2814
2736,2779,2814
2736,2779,2822
2736,2796,2822
2736,2796,2828
2735,2799,2828
2735,2799,2828
2735,2807,2828
2735,2807,2829
2736,2807,2829
2736,2811,2829
2736,2811,2827
2741,2811,2827
2741,2817,2827
2741,2817,2820
2735,2795,2820
2735,2795,2822
2732,2795,2822
2732,2782,2822
2732,2782,2828
2732,2782,2828
2732,2775,2828
2732,2775,2831
2731,2775,2831
2731,2782,2831
2731,2782,2825
2729,2782,2825
2729,2788,2825
2729,2788,2834
2726,2788,2834
2726,2793,2834
2726,2793,2827
2728,2793,2827
2728,2790,2827
2728,2790,2830
2729,2790,2830
2729,2790,2830
2729,2790,2831
2732,2790,2831
2732,2785,2831
2732,2785,2829
2732,2785,2829
2732,2789,2829
2732,2789,2829
2725,2789,2829
2725,2789,2829
2725,2789,2831
2726,2789,2831
2726,2790,2831
2726,2788,2835
2728,2789,2832
2728,2789,2831
2731,2789,2831
2731,2786,2831
2731,2786,2831
2730,2786,2831
2730,2788,2831
2730,2788,2828
2725,2788,2828
2725,2791,2828
2725,2791,2831
2728,2791,2831
2728,2790,2831
2728,2790,2837
2723,2790,2837
2723,2784,2837
2723,2784,2837
2722,2784,2837
2722,2790,2837
2722,2790,2833
2722,2790,2833
2722,2784,2833
2722,2784,2834
2729,2784,2834
2729,2793,2834
2729,2793,2833
2723,2793,2833
2723,2793,2833
2723,2793,2833
2724,2793,2833
2724,2793,2833
2724,2793,2833
2728,2793,2833
2728,2791,2833
2728,2791,2835
2733,2791,2835
2733,2791,2835
2733,2791,2837
2733,2791,2837
2733,2790,2837
2733,2790,2835
2738,2790,2835
2738,2793,2835
2738,2793,2837
2740,2793,2837
2740,2800,2837
2740,2800,2817
2740,2800,2817
2740,2789,2817
2740,2789,2832
2738,2789,2832
2738,2800,2832
2738,2800,2831
2739,2800,2831
2739,2787,2831
2739,2787,2829
2736,2787,2829
2736,2786,2829
2736,2786,2823
2744,2786,2823
2744,2792,2823
2744,2792,2829
2744,2792,2829
2744,2792,2829
2744,2792,2832
2741,2792,2832
2741,2787,2832
2741,2787,2834
2744,2787,2834
2744,2790,2834
2744,2790,2843
2739,2790,2843
2739,2788,2843
2739,2788,2858
2743,2788,2858
2743,2792,2858
2743,2792,2862
2737,2792,2862
2737,2785,2862
2737,2785,2859
2733,2785,2859
2733,2792,2859
2733,2792,2853
2735,2792,2853
2735,2792,2853
2735,2792,2848
2735,2792,2848
2735,2794,2848
2735,2794,2850
2731,2794,2850
2731,2790,2850
2731,2790,2844
2732,2790,2844
2732,2792,2844
2732,2792,2848
2723,2792,2848
2723,2790,2848
2723,2790,2843
2722,2790,2843
2722,2791,2843
2722,2791,2834
2722,2791,2834
2722,2795,2834
2722,2795,2824
2722,2795,2824
2722,2792,2824
2722,2792,2811
2724,2792,2811
2724,2792,2811
2724,2792,2821
2745,2792,2821
2745,2792,2821
2745,2792,2818
2737,2792,2818
2737,2790,2818
2737,2790,2821
2749,2790,2821
2749,2793,2821
2749,2793,2817
2745,2793,2817
2745,2797,2817
2745,2797,2822
2744,2797,2822
2744,2793,2822
2744,2793,2836
2755,2793,2836
2755,2794,2836
2755,2794,2857
2751,2794,2857
2751,2793,2857
2751,2793,2857
2753,2793,2857
2753,2790,2857
2753,2790,2857
2762,2790,2857
2762,2786,2857
2762,2786,2856
2751,2786,2856
2751,2788,2856
2751,2788,2845
2746,2788,2845
2746,2785,2845
2746,2785,2837
2730,2785,2837
2730,2780,2837
2730,2780,2819
2734,2780,2819
2734,2784,2819
2734,2784,2820
2749,2784,2820
2749,2810,2820
2749,2810,2829
2751,2810,2829
2751,2810,2829
2751,2810,2835
2760,2810,2835
2760,2817,2835
2760,2817,2838
2769,2817,2838
2769,2818,2838
2769,2818,2841
2763,2818,2841
2763,2818,2841
2763,2818,2840
2761,2818,2840
2761,2810,2840
2761,2810,2838
2776,2810,2838
2776,2791,2838
2776,2791,2840
2762,2791,2840
2762,2782,2840
2762,2782,2837
2764,2782,2837
2764,2791,2837
2764,2791,2839
2759,2791,2839
2759,2786,2839
2759,2786,2838
2754,2786,2838
2754,2785,2838
2754,2785,2846
2754,2785,2846
2754,2783,2846
2754,2783,2840
2749,2783,2840
2749,2780,2840
2749,2780,2835
2747,2780,2835
2747,2782,2835
2747,2782,2838
2736,2782,2838
2736,2774,2838
2736,2774,2838
2724,2774,2838
2724,2782,2838
2724,2782,2835
2726,2782,2835
2726,2790,2835
2726,2790,2837
2724,2790,2837
2724,2805,2837
2724,2805,2841
2726,2805,2841
2726,2810,2841
2726,2810,2841
2729,2810,2841
2729,2807,2841
2729,2807,2834
2736,2807,2834
2736,2811,2834
2736,2811,2836
2731,2811,2836
2731,2812,2836
2731,2812,2833
2733,2812,2833
2733,2812,2833
2733,2812,2839
2737,2812,2839
2737,2824,2839
2737,2824,2836
2731,2824,2836
2731,2824,2836
2731,2824,2836
2738,2824,2836
2738,2825,2836
2738,2825,2834
2737,2825,2834
2737,2828,2834
2737,2828,2841
2736,2828,2841
2736,2823,2841
2736,2823,2836
2738,2823,2836
2738,2817,2836
2738,2817,2839
2734,2817,2839
2734,2806,2839
2734,2806,2838
2732,2806,2838
2732,2799,2838
2732,2799,2842
2731,2799,2842
2731,2795,2842
2731,2795,2843
2736,2795,2843
2736,2791,2843
2736,2791,2838
2740,2791,2838
2740,2788,2838
2740,2788,2839
2731,2788,2839
2731,2792,2839
2731,2792,2840
2735,2792,2840
2735,2793,2840
2735,2793,2847
2730,2793,2847
2730,2795,2847
2730,2795,2840
2740,2795,2840
2740,2798,2840
2740,2798,2842
2732,2798,2842
2732,2799,2842
2732,2799,2842
2739,2799,2842
2739,2797,2842
2739,2797,2840
2738,2797,2840
2738,2802,2840
2738,2802,2844
2748,2802,2844
2748,2797,2844
2748,2797,2842
2741,2797,2842
2741,2797,2842
2741,2797,2844
2744,2797,2844
2744,2796,2844
2744,2796,2842
2743,2796,2842
2743,2801,2842
2743,2801,2841
2747,2801,2841
2747,2794,2841
2747,2794,2845
2744,2794,2845
2744,2802,2845
2744,2802,2844
2738,2802,2844
2738,2799,2844
2738,2799,2841
2742,2799,2841
2742,2801,2841
2742,2801,2849
2741,2801,2849
2741,2796,2849
2741,2796,2839
2743,2796,2839
2743,2794,2839
2743,2794,2842
2738,2794,2842
2738,2795,2842
2738,2795,2843
2743,2795,2843
2743,2802,2843
2743,2802,2838
2738,2802,2838
2738,2798,2838
2738,2798,2840
2738,2798,2840
2738,2796,2840
2738,2796,2843
2742,2796,2843
2742,2800,2843
2742,2800,2839
2740,2800,2839
2740,2798,2839
2740,2798,2834
2735,2798,2834
2735,2801,2834
2735,2801,2833
2736,2801,2833
2736,2795,2833
2736,2795,2832
2735,2795,2832
2735,2797,2832
2735,2797,2850
2734,2797,2850
2734,2794,2850
2734,2794,2861
2736,2794,2861
2736,2796,2861
2736,2796,2864
2735,2796,2864
2735,2790,2864
2735,2790,2854
2737,2790,2854
2737,2793,2854
2737,2793,2856
2730,2793,2856
2730,2790,2856
2730,2790,2847
2734,2790,2847
2734,2779,2847
2734,2779,2836
2731,2779,2836
2731,2780,2836
2731,2780,2826
2729,2780,2826
2729,2808,2826
2729,2808,2829
2732,2808,2829
2732,2813,2829
2732,2813,2833
2736,2813,2833
2736,2818,2833
2736,2818,2833
2734,2818,2833
2734,2821,2833
2734,2821,2838
2726,2821,2838
2726,2828,2838
2726,2828,2845
2728,2828,2845
2728,2820,2845
2728,2820,2842
2731,2820,2842
2731,2800,2842
2731,2800,2840
2730,2800,2840
2730,2793,2840
2730,2793,2840
2730,2793,2840
2730,2793,2846
2733,2793,2846
2733,2796,2846
2733,2796,2837
2736,2796,2837
2736,2801,2837
2736,2801,2843
2742,2801,2843
2742,2802,2834
2743,2802,2834
2743,2801,2836
2738,2801,2836
2738,2797,2838
2746,2797,2838
2746,2798,2838
2746,2798,2843
2732,2798,2843
2732,2799,2843
2732,2799,2836
2738,2799,2836
2738,2796,2836
2738,2796,2837
2735,2796,2837
2735,2795,2837
2735,2795,2838
2734,2795,2838
2734,2792,2835
2737,2792,2835
2737,2798,2838
2739,2798,2838
2739,2796,2837
2736,2796,2837
2736,2794,2837
2736,2794,2835
2736,2794,2835
2736,2798,2836
2735,2798,2836
2735,2798,2831
2736,2798,2831
2736,2792,2828
2730,2792,2828
2730,2796,2830
2734,2796,2830
2734,2798,2838
2732,2798,2838
2732,2794,2837
2726,2794,2837
2726,2795,2823
2738,2795,2823
2738,2791,2828
2728,2791,2828
2728,2798,2839
2729,2798,2839
2729,2793,2843
2726,2793,2843
2726,2792,2851
2727,2792,2851
2727,2796,2851
2727,2796,2857
2726,2796,2857
2726,2795,2862
2733,2795,2862
